time,voltage
0.1,3.6037141663122787
0.10003333333333334,3.294416144606367
0.10006666666666668,2.9806710077117806
0.10010000000000001,2.665240011721678
0.10013333333333334,2.3507303485371702
0.10016666666666667,2.0395762355399025
0.10020000000000001,1.7340607702102557
0.10023333333333334,1.436317682507613
0.10026666666666667,1.1482806936123922
0.1003,0.8716032496982087
0.10033333333333334,0.6075971104446772
0.10036666666666667,0.35721970354543564
0.1004,0.1211035173094139
0.10043333333333333,-0.10039290741179385
0.10046666666666668,-0.3071379189284627
0.1005,-0.4992117936170817
0.10053333333333334,-0.6769148577082313
0.10056666666666667,-0.8407495806884222
0.10060000000000001,-0.9913535806900151
0.10063333333333334,-1.1294159881084282
0.10066666666666667,-1.2556117954876067
0.10070000000000001,-1.3705521654211756
0.10073333333333334,-1.474749436755163
0.10076666666666667,-1.5686140446116523
0.1008,-1.6524908153310651
0.10083333333333334,-1.726732215474945
0.10086666666666667,-1.7917807112169861
0.1009,-1.84820116534757
0.10093333333333333,-1.8966454113636613
0.10096666666666668,-1.9377933570556216
0.101,-1.9723028777513334
0.10103333333333334,-2.0007633010928645
0.10106666666666667,-2.0236555711164663
0.10110000000000001,-2.0413460120660023
0.10113333333333334,-2.054128788917049
0.10116666666666667,-2.062294173067941
0.10120000000000001,-2.066191094111427
0.10123333333333334,-2.0662764204287143
0.10126666666666667,-2.0631384158046133
0.1013,-2.0574655854425354
0.10133333333333334,-2.0499567784404604
0.10136666666666667,-2.041218042948713
0.1014,-2.031718896811924
0.10143333333333333,-2.02182171445154
0.10146666666666668,-2.0118087340328104
0.1015,-2.001861413520465
0.10153333333333334,-1.9920431323058556
0.10156666666666667,-1.9823342242221862
0.10160000000000001,-1.9726960392248194
0.10163333333333334,-1.9631143934331206
0.10166666666666667,-1.9536021437156672
0.1017,-1.9441775565328356
0.10173333333333334,-1.934847938993232
0.10176666666666667,-1.9256071410874618
0.1018,-1.9164252207873875
0.10183333333333335,-1.9072149011829824
0.10186666666666667,-1.897799229544956
0.1019,-1.8879245497994361
0.10193333333333333,-1.8773341932894234
0.10196666666666668,-1.8658633923567878
0.10200000000000001,-1.853484430722134
0.10203333333333334,-1.8402680520142192
0.10206666666666667,-1.8263030434769192
0.10210000000000001,-1.8116279125224286
0.10213333333333334,-1.7961806627788786
0.10216666666666667,-1.77976308373425
0.1022,-1.762039664385623
0.10223333333333334,-1.7425897647127357
0.10226666666666667,-1.7210019003464385
0.1023,-1.6969693529771575
0.10233333333333335,-1.6703535493556765
0.10236666666666668,-1.6412225135511003
0.1024,-1.6098740138738912
0.10243333333333333,-1.5768043588860923
0.10246666666666668,-1.5425948580668958
0.10250000000000001,-1.5077803790108513
0.10253333333333334,-1.47279264562095
0.10256666666666667,-1.437984718026236
0.10260000000000001,-1.4036641043263733
0.10263333333333334,-1.3700640149387315
0.10266666666666667,-1.3372466861078052
0.1027,-1.3050117664267054
0.10273333333333334,-1.2728891531100601
0.10276666666666667,-1.2402116490499073
0.1028,-1.2062016765569703
0.10283333333333333,-1.1700280775095306
0.10286666666666668,-1.1308301461256776
0.1029,-1.0877336591492694
0.10293333333333334,-1.039885936117261
0.10296666666666668,-0.9864900238485196
0.10300000000000001,-0.9267921879042227
0.10303333333333334,-0.8600190980451734
0.10306666666666667,-0.7853033778418315
0.10310000000000001,-0.7016415941060088
0.10313333333333334,-0.6078899565499921
0.10316666666666667,-0.5027423982869743
0.1032,-0.38467038543645804
0.10323333333333334,-0.25190311147127614
0.10326666666666667,-0.10249830960316336
0.1033,0.06553444033021415
0.10333333333333333,0.2540874572106167
0.10336666666666668,0.46479185632700093
0.1034,0.6988566001850329
0.10343333333333334,0.9569404469331284
0.10346666666666668,1.2390678693228512
0.10350000000000001,1.5445533860743428
0.10353333333333334,1.8719284982036768
0.10356666666666667,2.2189388884759578
0.10360000000000001,2.5826275659718356
0.10363333333333334,2.959412473718386
0.10366666666666667,3.345117880107994
0.1037,3.7350479986998186
0.10373333333333334,4.124160254512294
0.10376666666666667,4.507257775275906
0.1038,4.879119769088057
0.10383333333333333,5.234594405046706
0.10386666666666668,5.5686815829227685
0.1039,5.8765957530130235
0.10393333333333334,6.153830153358386
0.10396666666666668,6.396252805800194
0.10400000000000001,6.600236687387905
0.10403333333333334,6.7628056420188
0.10406666666666667,6.881755864835283
0.10410000000000001,6.955722666069927
0.10413333333333334,6.98419837678224
0.10416666666666667,6.967509032421304
0.1042,6.906749758806117
0.10423333333333334,6.803687684473209
0.10426666666666667,6.660644855387401
0.1043,6.480387549999267
0.10433333333333333,6.266044389937098
0.10436666666666668,6.02102891718557
0.1044,5.74893550926563
0.10443333333333334,5.453427321692132
0.10446666666666667,5.138159711696287
0.10450000000000001,4.80674872011697
0.10453333333333334,4.462745744746542
0.10456666666666667,4.109596075779495
0.1046,3.7506080595163325
0.10463333333333334,3.3889440998287625
0.10466666666666667,3.0276051660624197
0.1047,2.6693942965706716
0.10473333333333334,2.316880448920297
0.10476666666666667,1.97237606507969
0.1048,1.6379180059871334
0.10483333333333333,1.3152521999521685
0.10486666666666668,1.0058258076826867
0.10490000000000001,0.7107671826725014
0.10493333333333334,0.4308407908067437
0.10496666666666667,0.16640454592353202
0.10500000000000001,-0.08259109875755147
0.10503333333333334,-0.31654074625314804
0.10506666666666667,-0.5360850004828341
0.1051,-0.7420264566621635
0.10513333333333334,-0.935243439004247
0.10516666666666667,-1.1165839977325507
0.1052,-1.2868203048829956
0.10523333333333335,-1.4467083498054998
0.10526666666666668,-1.5970665449019825
0.1053,-1.7387803285581742
0.10533333333333333,-1.872737470084221
0.10536666666666668,-1.9997486605124157
0.10540000000000001,-2.120478223583035
0.10543333333333334,-2.235381764709406
0.10546666666666667,-2.3447067310110583
0.10550000000000001,-2.4486006751721683
0.10553333333333334,-2.547198421577358
0.10556666666666667,-2.640583719637688
0.1056,-2.728728418235047
0.10563333333333334,-2.811493031777604
0.10566666666666667,-2.8886608018580673
0.1057,-2.959993512287253
0.10573333333333335,-3.0253032746684947
0.10576666666666668,-3.084495942900072
0.1058,-3.1375505761911886
0.10583333333333333,-3.1844449718327374
0.10586666666666668,-3.2250692659328606
0.10590000000000001,-3.259179157440699
0.10593333333333334,-3.2864190031368623
0.10596666666666667,-3.306410802030762
0.10600000000000001,-3.3188781452461935
0.10603333333333334,-3.3237414849047107
0.10606666666666667,-3.321126627916154
0.1061,-3.311299059986665
0.10613333333333334,-3.2945885130208032
0.10616666666666667,-3.271356757448601
0.1062,-3.242029623626191
0.10623333333333333,-3.207163292453732
0.10626666666666668,-3.167479969102263
0.1063,-3.123847764420184
0.10633333333333334,-3.0772228352837057
0.10636666666666666,-3.0285722892228844
0.10640000000000001,-2.97879862816422
0.10643333333333334,-2.9286812541691853
0.10646666666666667,-2.8788306296238613
0.10650000000000001,-2.829660958714034
0.10653333333333334,-2.7814140653262878
0.10656666666666667,-2.734248853476984
0.1066,-2.6883600431652743
0.10663333333333334,-2.6440687275746666
0.10666666666666667,-2.601842257081454
0.1067,-2.562227962869543
0.10673333333333333,-2.5257238942798312
0.10676666666666668,-2.4926397927234234
0.1068,-2.462994531975021
0.10683333333333334,-2.4364875809358586
0.10686666666666667,-2.412568689890217
0.10690000000000001,-2.3905572029109297
0.10693333333333334,-2.3697245770416226
0.10696666666666667,-2.3493291545498862
0.10700000000000001,-2.3286356746857377
0.10703333333333334,-2.30692126457122
0.10706666666666667,-2.283476136094875
0.1071,-2.2576207961735064
0.10713333333333334,-2.228741610998189
0.10716666666666667,-2.1963110012741938
0.1072,-2.159883626790383
0.10723333333333333,-2.1191628185420637
0.10726666666666668,-2.0741669587655776
0.1073,-2.0253598329042366
0.10733333333333334,-1.9736506496728992
0.10736666666666667,-1.920289286119767
0.10740000000000001,-1.8667157259089195
0.10743333333333334,-1.814419916022718
0.10746666666666667,-1.7648356986132903
0.10750000000000001,-1.719259664744488
0.10753333333333334,-1.678794711440625
0.10756666666666667,-1.6443312734660784
0.1076,-1.6165580442182643
0.10763333333333334,-1.5959636908999713
0.10766666666666667,-1.582797698693991
0.1077,-1.577008154592337
0.10773333333333333,-1.5782050385453705
0.10776666666666668,-1.5856695361444024
0.1078,-1.5984025453006085
0.10783333333333334,-1.6151897132757964
0.10786666666666667,-1.634634491164948
0.10790000000000001,-1.6551395044977708
0.10793333333333334,-1.674878813407638
0.10796666666666667,-1.6917978302732808
0.10800000000000001,-1.7036329009331612
0.10803333333333334,-1.7079424865346202
0.10806666666666667,-1.702162655813908
0.1081,-1.6836776286874942
0.10813333333333333,-1.6498680245353823
0.10816666666666667,-1.598133086470382
0.1082,-1.5259250644354105
0.10823333333333333,-1.4308150489439888
0.10826666666666668,-1.3105809395291714
0.10830000000000001,-1.163305605220804
0.10833333333333334,-0.987500808990756
0.10836666666666667,-0.7823037107790504
0.10840000000000001,-0.5477048939097585
0.10843333333333334,-0.28468464803899834
0.10846666666666667,0.004751290485837408
0.10850000000000001,0.31756819113061285
0.10853333333333334,0.6497483684408417
0.10856666666666667,0.9964316231731515
0.1086,1.3521364981894965
0.10863333333333333,1.7110225256659681
0.10866666666666668,2.067118502793246
0.1087,2.414456384692373
0.10873333333333333,2.747196243639306
0.10876666666666668,3.059825804344137
0.10880000000000001,3.3473466206310802
0.10883333333333334,3.605375304465812
0.10886666666666667,3.8302081679840447
0.10890000000000001,4.018885014514405
0.10893333333333334,4.169231982933885
0.10896666666666667,4.279861667340444
0.109,4.350130184041924
0.10903333333333334,4.380057816528209
0.10906666666666667,4.370221592086767
0.1091,4.321639152316409
0.10913333333333333,4.235665801843489
0.10916666666666668,4.113913369394695
0.1092,3.9582038639377157
0.10923333333333334,3.770590673813609
0.10926666666666668,3.5534412812519047
0.10930000000000001,3.309492226932581
0.10933333333333334,3.0417954555278564
0.10936666666666667,2.7535916624694066
0.10940000000000001,2.448207273294598
0.10943333333333334,2.129004732422304
0.10946666666666667,1.7993380643359074
0.1095,1.4624738402700743
0.10953333333333334,1.1215005041628168
0.10956666666666667,0.7792731915035909
0.1096,0.43839935580040307
0.10963333333333333,0.1012421397020463
0.10966666666666668,-0.23007015117845947
0.1097,-0.5536409213207579
0.10973333333333334,-0.8678277695466863
0.10976666666666668,-1.1712862813761036
0.10980000000000001,-1.4629917729720132
0.10983333333333334,-1.742191495169588
0.10986666666666667,-2.008286233551783
0.10990000000000001,-2.2606981527189918
0.10993333333333334,-2.498801485260585
0.10996666666666667,-2.721944912163648
0.11,-2.9295307622899185
0.11003333333333334,-3.121103804042553
0.11006666666666667,-3.2964187683022894
0.1101,-3.4554766903232546
0.11013333333333333,-3.5985360136177214
0.11016666666666668,-3.7260952327885937
0.1102,-3.838837835215352
0.11023333333333334,-3.9375462280333435
0.11026666666666668,-4.023014466143688
0.11030000000000001,-4.0960009041264565
0.11033333333333334,-4.157219739481707
0.11036666666666667,-4.207324195685968
0.1104,-4.246875757214508
0.11043333333333334,-4.276343939547516
0.11046666666666667,-4.296156826798822
0.1105,-4.306777267707714
0.11053333333333334,-4.308760558119623
0.11056666666666667,-4.302780792075668
0.1106,-4.289647673830954
0.11063333333333333,-4.270302422285034
0.11066666666666668,-4.245749454120722
0.1107,-4.216921890510042
0.11073333333333334,-4.184545279841046
0.11076666666666668,-4.149083708589475
0.11080000000000001,-4.110797357850429
0.11083333333333334,-4.069865310890993
0.11086666666666667,-4.0265088643725795
0.1109,-3.981065165250442
0.11093333333333334,-3.9339763087040605
0.11096666666666667,-3.8857069929800585
0.111,-3.8366536381289444
0.11103333333333334,-3.7870862172837034
0.11106666666666667,-3.7371075845695083
0.1111,-3.686622170460145
0.11113333333333333,-3.635352574869779
0.11116666666666668,-3.5829316197472134
0.11120000000000001,-3.529039318708751
0.11123333333333334,-3.473515196336904
0.11126666666666667,-3.4163798825281484
0.11130000000000001,-3.3577552112463653
0.11133333333333334,-3.297747209673408
0.11136666666666667,-3.2363724525743267
0.1114,-3.173554676843676
0.11143333333333334,-3.1091645870762328
0.11146666666666667,-3.0430637554502264
0.1115,-2.9751280484445677
0.11153333333333335,-2.905239894708992
0.11156666666666668,-2.8332537893903553
0.1116,-2.7589689448017585
0.11163333333333333,-2.682150188073414
0.11166666666666668,-2.602585639703656
0.11170000000000001,-2.5201193904615082
0.11173333333333334,-2.4346289206760057
0.11176666666666667,-2.345996686767454
0.11180000000000001,-2.254141954891589
0.11183333333333334,-2.15910743358085
0.11186666666666667,-2.0611362109703015
0.1119,-1.9606973058079666
0.11193333333333334,-1.8584737058866372
0.11196666666666667,-1.755332316275406
0.112,-1.652267297987888
0.11203333333333335,-1.5503167844940313
0.11206666666666668,-1.4504729395812437
0.1121,-1.35359603904958
0.11213333333333333,-1.2603421913222632
0.11216666666666666,-1.1711173290170958
0.11220000000000001,-1.0860512341821498
0.11223333333333334,-1.0049863477025718
0.11226666666666667,-0.9274896618905485
0.11230000000000001,-0.8528845456823935
0.11233333333333334,-0.7802848351060434
0.11236666666666667,-0.7086148213267519
0.1124,-0.6366117149829602
0.11243333333333334,-0.5628139329812274
0.11246666666666667,-0.48554422359498034
0.1125,-0.4029094217554589
0.11253333333333335,-0.3128303148078063
0.11256666666666668,-0.21310033102017195
0.1126,-0.10146423302360927
0.11263333333333334,0.024308770541007923
0.11266666666666666,0.1663735913575977
0.11270000000000001,0.3267651964790689
0.11273333333333334,0.5073548160519402
0.11276666666666667,0.7098243360889812
0.11280000000000001,0.9356528393766522
0.11283333333333334,1.18604712099357
0.11286666666666667,1.4617637805384145
0.1129,1.7628722590710966
0.11293333333333334,2.088546109679184
0.11296666666666667,2.436928755767838
0.113,2.8050960117056705
0.11303333333333333,3.1891196558558526
0.11306666666666668,3.584193473685181
0.1131,3.984774079950624
0.11313333333333334,4.3847322098913875
0.11316666666666667,4.777550327510161
0.11320000000000001,5.156584722560661
0.11323333333333334,5.515327764052372
0.11326666666666667,5.8475978347199415
0.11330000000000001,6.147683985161143
0.11333333333333334,6.410495489266508
0.11336666666666667,6.631701500909287
0.1134,6.807832892355201
0.11343333333333334,6.936364601657522
0.11346666666666667,7.015799086172966
0.1135,7.0457297578058835
0.11353333333333333,7.026859120470848
0.11356666666666668,6.960953947526661
0.1136,6.85072982728674
0.11363333333333334,6.6996997138132395
0.11366666666666667,6.512028777676873
0.11370000000000001,6.292393156934589
0.11373333333333334,6.045823730727186
0.11376666666666667,5.777533250182503
0.11380000000000001,5.492730191019715
0.11383333333333334,5.196419613697511
0.11386666666666667,4.893204029431533
0.1139,4.587126595513576
0.11393333333333334,4.281590499822518
0.11396666666666667,3.9793339499541336
0.114,3.6824307650778247
0.11403333333333333,3.3923202005245616
0.11406666666666668,3.1098669398168233
0.11410000000000001,2.8354349281928135
0.11413333333333334,2.568978962466003
0.11416666666666667,2.3101666193136947
0.11420000000000001,2.058495471945603
0.11423333333333334,1.813347202901398
0.11426666666666667,1.5739754667249366
0.11430000000000001,1.3394878670753283
0.11433333333333334,1.108884754785495
0.11436666666666667,0.8811794100127688
0.1144,0.6555886308052451
0.11443333333333333,0.43173066523811776
0.11446666666666667,0.20974004622218895
0.1145,-0.00972492501285452
0.11453333333333333,-0.22554708433584922
0.11456666666666668,-0.43626046560165
0.11460000000000001,-0.6401822754514676
0.11463333333333334,-0.8355498743931637
0.11466666666666667,-1.020654385960881
0.11470000000000001,-1.1939482563778894
0.11473333333333334,-1.3541014080490643
0.11476666666666667,-1.5000083019277524
0.11480000000000001,-1.630784059362201
0.11483333333333334,-1.7457638754232552
0.11486666666666667,-1.8444584873902454
0.1149,-1.926475942655972
0.11493333333333333,-1.9915238767599945
0.11496666666666668,-2.0395344722408604
0.115,-2.0708110122086434
0.11503333333333333,-2.086099409871364
0.11506666666666668,-2.086576986163733
0.11510000000000001,-2.07379204465858
0.11513333333333334,-2.0495942856930687
0.11516666666666667,-2.0160874424576516
0.11520000000000001,-1.9756015227695802
0.11523333333333334,-1.93065540312099
0.11526666666666667,-1.883885530530019
0.1153,-1.837930275903675
0.11533333333333334,-1.7952849541640616
0.11536666666666667,-1.7581730640955195
0.1154,-1.7284594876139545
0.11543333333333333,-1.7075947115715935
0.11546666666666668,-1.6965873234438533
0.1155,-1.6960238169406088
0.11553333333333334,-1.706136858655237
0.11556666666666668,-1.7268741601175615
0.11560000000000001,-1.7579298837204305
0.11563333333333334,-1.798754404774987
0.11566666666666667,-1.848552772705654
0.1157,-1.9062651431988364
0.11573333333333334,-1.9705438396500794
0.11576666666666667,-2.039754566943729
0.11580000000000001,-2.112017875267413
0.11583333333333334,-2.185274538448926
0.11586666666666667,-2.2573418612111316
0.1159,-2.325959445171149
0.11593333333333333,-2.3888523395385137
0.11596666666666668,-2.4438196427388563
0.116,-2.488833421871795
0.11603333333333334,-2.5221460285314654
0.11606666666666668,-2.542410784839707
0.11610000000000001,-2.5488131673467973
0.11613333333333334,-2.5411850806090293
0.11616666666666667,-2.5200298750431447
0.1162,-2.4864186403356774
0.11623333333333334,-2.4418223051656316
0.11626666666666667,-2.3879620960090597
0.1163,-2.326699963760574
0.11633333333333334,-2.25996881684405
0.11636666666666667,-2.189741498102391
0.1164,-2.118008683967881
0.11643333333333333,-2.046733604358833
0.11646666666666668,-1.977792283611506
0.1165,-1.9129155552924189
0.11653333333333334,-1.8536357201339855
0.11656666666666668,-1.801255324923527
0.11660000000000001,-1.7568357152913698
0.11663333333333334,-1.7211615185917946
0.11666666666666667,-1.6946700753602153
0.1167,-1.6773928075158901
0.11673333333333334,-1.668952638597529
0.11676666666666667,-1.6686237994604185
0.1168,-1.6754255653132093
0.11683333333333334,-1.6882047271347174
0.11686666666666667,-1.7056828429140327
0.1169,-1.7264928121502954
0.11693333333333333,-1.7492514061256916
0.11696666666666668,-1.7726682440040744
0.117,-1.7956309526709173
0.11703333333333334,-1.8172272452331306
0.11706666666666668,-1.836726650519727
0.11710000000000001,-1.8535357419536806
0.11713333333333334,-1.8671088180406792
0.11716666666666667,-1.8768359626972968
0.1172,-1.8819752984342306
0.11723333333333334,-1.8816675609007993
0.11726666666666667,-1.8750169815747006
0.1173,-1.8612007123721688
0.11733333333333335,-1.8395799656726273
0.11736666666666667,-1.809800431426038
0.1174,-1.7718549920740598
0.11743333333333333,-1.726067570312211
0.11746666666666666,-1.673003506225395
0.11750000000000001,-1.613366635158277
0.11753333333333334,-1.5479266016258226
0.11756666666666668,-1.4774705465417632
0.11760000000000001,-1.4027500123606071
0.11763333333333334,-1.3244323334959107
0.11766666666666667,-1.243118608293427
0.1177,-1.159430235853414
0.11773333333333334,-1.0740633529983674
0.11776666666666667,-0.9877452712911992
0.1178,-0.9011468073750327
0.11783333333333335,-0.8148424684177552
0.11786666666666668,-0.729349591073855
0.1179,-0.6452099377069486
0.11793333333333333,-0.5630713822777282
0.11796666666666666,-0.4837531773527904
0.11800000000000001,-0.40826289952985356
0.11803333333333334,-0.3377503747092521
0.11806666666666668,-0.27344276387826927
0.11810000000000001,-0.21657714504101805
