time,voltage
0.1,-1.4105721766941728
0.10003333333333334,-1.3734843541275683
0.10006666666666668,-1.3304994162103894
0.10010000000000001,-1.282043177936151
0.10013333333333334,-1.2287736675902394
0.10016666666666667,-1.1715635359073466
0.10020000000000001,-1.1114054661921475
0.10023333333333334,-1.0492621413973862
0.10026666666666667,-0.9859437447823134
0.1003,-0.9221016719281384
0.10033333333333334,-0.858339231090326
0.10036666666666667,-0.7953328932461061
0.1004,-0.7338812407804327
0.10043333333333333,-0.6748930278552147
0.10046666666666668,-0.6193477829003614
0.1005,-0.5682364124840065
0.10053333333333334,-0.5224851537321622
0.10056666666666667,-0.48288056143294755
0.10060000000000001,-0.4500062723988516
0.10063333333333334,-0.4241803323418591
0.10066666666666667,-0.4054023320198327
0.10070000000000001,-0.3933557758245581
0.10073333333333334,-0.38747806764596593
0.10076666666666667,-0.38705353252997177
0.1008,-0.3912900770378929
0.10083333333333334,-0.3993678045761971
0.10086666666666667,-0.41046518818001304
0.1009,-0.42378727387823906
0.10093333333333333,-0.43860015731576407
0.10096666666666668,-0.4542442187601731
0.101,-0.4701234681736398
0.10103333333333334,-0.48569851412502335
0.10106666666666667,-0.5004982172528107
0.10110000000000001,-0.5141392061304385
0.10113333333333334,-0.5263290192133265
0.10116666666666667,-0.5368410899296409
0.10120000000000001,-0.545478254490746
0.10123333333333334,-0.5520485918721746
0.10126666666666667,-0.5563578227683973
0.1013,-0.5582116460302109
0.10133333333333334,-0.5574194519448534
0.10136666666666667,-0.5537916995787672
0.1014,-0.5471373950259344
0.10143333333333333,-0.5372768785985337
0.10146666666666668,-0.5240760743292466
0.1015,-0.5074807406247613
0.10153333333333334,-0.4875230552254311
0.10156666666666667,-0.4643145140397607
0.10160000000000001,-0.43804627756939496
0.10163333333333334,-0.4089774839109622
0.10166666666666667,-0.37739742689707767
0.1017,-0.34359001360275226
0.10173333333333334,-0.3078358591846812
0.10176666666666667,-0.2704577412129872
0.1018,-0.23188012646846468
0.10183333333333335,-0.19265649769411133
0.10186666666666667,-0.15343708927423172
0.1019,-0.11490057903016264
0.10193333333333333,-0.07770891586088924
0.10196666666666668,-0.042518551309054006
0.10200000000000001,-0.010027678832551104
0.10203333333333334,0.018988772474770054
0.10206666666666667,0.04369219241716362
0.10210000000000001,0.06323517908920528
0.10213333333333334,0.07682856149171638
0.10216666666666667,0.08380644976478085
0.1022,0.08368131444778401
0.10223333333333334,0.0761732171752111
0.10226666666666667,0.06121510290630911
0.1023,0.03894938886542544
0.10233333333333335,0.009719551615205177
0.10236666666666668,-0.025942405164568746
0.1024,-0.06733366451758097
0.10243333333333333,-0.11361787142478172
0.10246666666666668,-0.1638909485201585
0.10250000000000001,-0.21725248517438045
0.10253333333333334,-0.2728483004165533
0.10256666666666667,-0.32988978108785605
0.10260000000000001,-0.38769017101031805
0.10263333333333334,-0.4457250999870315
0.10266666666666667,-0.503674018876395
0.1027,-0.5613966858127306
0.10273333333333334,-0.6188137830099678
0.10276666666666667,-0.6756999732084688
0.1028,-0.7314746910323732
0.10283333333333333,-0.7850735731657796
0.10286666666666668,-0.8348999538292469
0.1029,-0.8788208383487309
0.10293333333333334,-0.9141892552554097
0.10296666666666668,-0.9378848139532764
0.10300000000000001,-0.946355910857643
0.10303333333333334,-0.935658199552971
0.10306666666666667,-0.9015197300885589
0.10310000000000001,-0.8394570963370971
0.10313333333333334,-0.7449278585031583
0.10316666666666667,-0.6135024076720302
0.1032,-0.44103994675609054
0.10323333333333334,-0.2238635885928294
0.10326666666666667,0.04101812536484374
0.1033,0.3556220194183083
0.10333333333333333,0.7207046822765313
0.10336666666666668,1.1355433665717714
0.1034,1.5977809711647348
0.10343333333333334,2.1033449584254065
0.10346666666666668,2.646491329539008
0.10350000000000001,3.2199888769527494
0.10353333333333334,3.815394607341706
0.10356666666666667,4.423363715367114
0.10360000000000001,5.033954324649363
0.10363333333333334,5.636912245124237
0.10366666666666667,6.221947632898467
0.1037,6.779000216363419
0.10373333333333334,7.2984838645937495
0.10376666666666667,7.77152239767452
0.1038,8.19017400234534
0.10383333333333333,8.547619782692214
0.10386666666666668,8.838303631073481
0.1039,9.05802750057386
0.10393333333333334,9.204007869841268
0.10396666666666668,9.2749050533773
0.10400000000000001,9.270832051393032
0.10403333333333334,9.193324326373707
0.10406666666666667,9.045247100629066
0.10410000000000001,8.830632631487184
0.10413333333333334,8.554476235693093
0.10416666666666667,8.22254795142515
0.1042,7.841228608652576
0.10423333333333334,7.417322284387625
0.10426666666666667,6.957834459757875
0.1043,6.469755276703849
0.10433333333333333,5.959875523580249
0.10436666666666668,5.4346580268074165
0.1044,4.900159193737752
0.10443333333333334,4.361934440044065
0.10446666666666667,3.8248989589506053
0.10450000000000001,3.2932001794174894
0.10453333333333334,2.770177366473739
0.10456666666666667,2.2584481847782802
0.1046,1.7600792260544202
0.10463333333333334,1.2767627365776926
0.10466666666666667,0.8099785955053036
0.1047,0.3611336605526319
0.10473333333333334,-0.0683743457058552
0.10476666666666667,-0.4771951964425225
0.1048,-0.8641127014436022
0.10483333333333333,-1.2281217969464235
0.10486666666666668,-1.5684877008091063
0.10490000000000001,-1.8847804492803353
0.10493333333333334,-2.1768694380211224
0.10496666666666667,-2.4448918674515694
0.10500000000000001,-2.689233634428386
0.10503333333333334,-2.910545698737465
0.10506666666666667,-3.109773203585429
0.1051,-3.2881441899021553
0.10513333333333334,-3.4470975461894184
0.10516666666666667,-3.588181453482433
0.1052,-3.7129599699041
0.10523333333333335,-3.822949295511772
0.10526666666666668,-3.9195888897813984
0.1053,-4.004233605249627
0.10533333333333333,-4.078145692427425
0.10536666666666668,-4.142470027279392
0.10540000000000001,-4.198186865728836
0.10543333333333334,-4.246065073486569
0.10546666666666667,-4.286655660249399
0.10550000000000001,-4.320329883945728
0.10553333333333334,-4.347324414661424
0.10556666666666667,-4.367767563002613
0.1056,-4.381693568270123
0.10563333333333334,-4.389059316559806
0.10566666666666667,-4.38977529837017
0.1057,-4.383750163003209
0.10573333333333335,-4.370912047572757
0.10576666666666668,-4.35117817342231
0.1058,-4.324416201956008
0.10583333333333333,-4.290461187478225
0.10586666666666668,-4.249188701088583
0.10590000000000001,-4.200595446896929
0.10593333333333334,-4.144848153061824
0.10596666666666667,-4.082299671597349
0.10600000000000001,-4.0135005489088265
0.10603333333333334,-3.9392236259827067
0.10606666666666667,-3.860481859443456
0.1061,-3.778504457152297
0.10613333333333334,-3.6946587995163327
0.10616666666666667,-3.6103405452587394
0.1062,-3.526874028784309
0.10623333333333333,-3.4454657195715797
0.10626666666666668,-3.367218429761159
0.1063,-3.2931542217809366
0.10633333333333334,-3.2241939664838313
0.10636666666666666,-3.1610906894733297
0.10640000000000001,-3.1043297590002803
0.10643333333333334,-3.054013328963978
0.10646666666666667,-3.0097752063192056
0.10650000000000001,-2.9707854659352115
0.10653333333333334,-2.9358575218096297
0.10656666666666667,-2.903591914068159
0.1066,-2.8724707187096796
0.10663333333333334,-2.8408756156213335
0.10666666666666667,-2.8070612603629663
0.1067,-2.7691349946616373
0.10673333333333333,-2.725083462744987
0.10676666666666668,-2.672849190656306
0.1068,-2.610426970641108
0.10683333333333334,-2.5359364290210755
0.10686666666666667,-2.4476380499886448
0.10690000000000001,-2.343903790936082
0.10693333333333334,-2.2231935520305037
0.10696666666666667,-2.0840981554776365
0.10700000000000001,-1.9254633942017017
0.10703333333333334,-1.746514139329694
0.10706666666666667,-1.546886608919709
0.1071,-1.3265965343222785
0.10713333333333334,-1.0860417726424498
0.10716666666666667,-0.8260630361406357
0.1072,-0.547998810055624
0.10723333333333333,-0.2536893333533174
0.10726666666666668,0.05455029414173062
0.1073,0.3739591673909121
0.10733333333333334,0.7013600284510336
0.10736666666666667,1.03319936471139
0.10740000000000001,1.3656158009779535
0.10743333333333334,1.6945412675799012
0.10746666666666667,2.015804141890128
0.10750000000000001,2.3252029256470688
0.10753333333333334,2.6185626986580917
0.10756666666666667,2.8918220431160537
0.1076,3.1411878774725026
0.10763333333333334,3.3633485959786693
0.10766666666666667,3.5556870719485647
0.1077,3.716427386994387
0.10773333333333333,3.8446915122169965
0.10776666666666668,3.940486516333003
0.1078,4.00465166470586
0.10783333333333334,4.038774960135057
0.10786666666666667,4.045061742198949
0.10790000000000001,4.026142180413784
0.10793333333333334,3.984860043808606
0.10796666666666667,3.924113843019367
0.10800000000000001,3.8467666522750714
0.10803333333333334,3.75558868784303
0.10806666666666667,3.653204074246569
0.1081,3.5420413725970374
0.10813333333333333,3.4243068946736006
0.10816666666666667,3.3019944241409203
0.1082,3.1769226783600297
0.10823333333333333,3.0507767233518663
0.10826666666666668,2.925127981306477
0.10830000000000001,2.8014291221144774
0.10833333333333334,2.680998312557905
0.10836666666666667,2.5649883608775426
0.10840000000000001,2.4543323830123724
0.10843333333333334,2.3496890085414246
0.10846666666666667,2.251406085681712
0.10850000000000001,2.1594911867803055
0.10853333333333334,2.073592460726073
0.10856666666666667,1.9930243981972184
0.1086,1.9168534641182204
0.10863333333333333,1.84401405642715
0.10866666666666668,1.7734145252724496
0.1087,1.7040153074909619
0.10873333333333333,1.6348758314798808
0.10876666666666668,1.565169111542598
0.10880000000000001,1.4941721893571513
0.10883333333333334,1.4212461377528132
0.10886666666666667,1.3458185176690647
0.10890000000000001,1.2673854122396715
0.10893333333333334,1.1855426959624935
0.10896666666666667,1.1000353853174143
0.109,1.0108037958097191
0.10903333333333334,0.9180033255826581
0.10906666666666667,0.8219792813271497
0.1091,0.7231988656504774
0.10913333333333333,0.6221657765767385
0.10916666666666668,0.5193509104711312
0.1092,0.41515563280510914
0.10923333333333334,0.309898073057717
0.10926666666666668,0.20380730285291818
0.10930000000000001,0.09701197528154071
0.10933333333333334,-0.010484514527948453
0.10936666666666667,-0.1188227029889667
0.10940000000000001,-0.2282623142385349
0.10943333333333334,-0.33910465425442243
0.10946666666666667,-0.45160089750006316
0.1095,-0.5658957583628051
0.10953333333333334,-0.6820186074160524
0.10956666666666667,-0.7999017837601632
0.1096,-0.9194072776992603
0.10963333333333333,-1.0403587401116223
0.10966666666666668,-1.1625748981665711
0.1097,-1.2858750310416518
0.10973333333333334,-1.4100215292345144
0.10976666666666668,-1.5346078317966438
0.10980000000000001,-1.6589467449761501
0.10983333333333334,-1.7820161237850942
0.10986666666666667,-1.9024778638610025
0.10990000000000001,-2.018736124577881
0.10993333333333334,-2.128989012442433
0.10996666666666667,-2.2312608988701603
0.11,-2.323442675048533
0.11003333333333334,-2.4033857689896383
0.11006666666666667,-2.4690730088007977
0.1101,-2.5188318952640487
0.11013333333333333,-2.5515206587942063
0.11016666666666668,-2.5666446985268756
0.1102,-2.5644019044014734
0.11023333333333334,-2.5456557599467864
0.11026666666666668,-2.5118240690370532
0.11030000000000001,-2.4646875638183063
0.11033333333333334,-2.406154064091769
0.11036666666666667,-2.3380334793697792
0.1104,-2.261875068025702
0.11043333333333334,-2.1788928042713445
0.11046666666666667,-2.089977141147475
0.1105,-1.9957798294705504
0.11053333333333334,-1.8968496852333783
0.11056666666666667,-1.793780817217105
0.1106,-1.6873312465519579
0.11063333333333333,-1.5784905281460886
0.11066666666666668,-1.468491498837
0.1107,-1.3587646218344798
0.11073333333333334,-1.2508534289526916
0.11076666666666668,-1.1463337083263685
0.11080000000000001,-1.046768341910296
0.11083333333333334,-0.953688642767397
0.11086666666666667,-0.8685645037013114
0.1109,-0.7927364594700548
0.11093333333333334,-0.7273169051970084
0.11096666666666667,-0.6730983040071201
0.111,-0.63050816771481
0.11103333333333334,-0.5996159611612495
0.11106666666666667,-0.5801641696379944
0.1111,-0.5716054802991765
0.11113333333333333,-0.5731503110251577
0.11116666666666668,-0.583818597925827
0.11120000000000001,-0.6024759626284202
0.11123333333333334,-0.6278542305114118
0.11126666666666667,-0.6585751919291883
0.11130000000000001,-0.693179938040238
0.11133333333333334,-0.7301591199950876
0.11136666666666667,-0.7680006258110978
0.1114,-0.8052665186493349
0.11143333333333334,-0.8406824495164639
0.11146666666666667,-0.8732057349536568
0.1115,-0.9020419458914034
0.11153333333333335,-0.9266120498887214
0.11156666666666668,-0.9464990188959095
0.1116,-0.9613993628845735
0.11163333333333333,-0.9711012087823152
0.11166666666666668,-0.975495845386642
0.11170000000000001,-0.9745973080554858
0.11173333333333334,-0.9685407641973598
0.11176666666666667,-0.9575605063944774
0.11180000000000001,-0.9419687403386531
0.11183333333333334,-0.9221439071473585
0.11186666666666667,-0.8985194377722864
0.1119,-0.8715707539844573
0.11193333333333334,-0.841808815005546
0.11196666666666667,-0.8097751646856287
0.112,-0.776028969179927
0.11203333333333335,-0.7411438480710576
0.11206666666666668,-0.7057268358457515
0.1121,-0.6704283853871809
0.11213333333333333,-0.6359203462831219
0.11216666666666666,-0.6028571202119382
0.11220000000000001,-0.5718363570850378
0.11223333333333334,-0.5433703296145858
0.11226666666666667,-0.5178772606441777
0.11230000000000001,-0.4956849646583427
0.11233333333333334,-0.47703907893601655
0.11236666666666667,-0.4621266404236331
0.1124,-0.4511212174452164
0.11243333333333334,-0.4442309251845749
0.11246666666666667,-0.4417183377566117
0.1125,-0.44387231003476796
0.11253333333333335,-0.45093797863409857
0.11256666666666668,-0.46303563605410675
0.1126,-0.48010470211430767
0.11263333333333334,-0.5018955671185165
0.11266666666666666,-0.5280095162954987
0.11270000000000001,-0.5579582427154081
0.11273333333333334,-0.591202014247225
0.11276666666666667,-0.6271462546054066
0.11280000000000001,-0.6651139836373041
0.11283333333333334,-0.7043489331009709
0.11286666666666667,-0.7440800044101038
0.1129,-0.7835915841741655
0.11293333333333334,-0.8222292180151148
0.11296666666666667,-0.8593484707000246
0.113,-0.8942622592798892
0.11303333333333333,-0.9262077225499881
0.11306666666666668,-0.9543261782771126
0.1131,-0.9776785435038711
0.11313333333333334,-0.9953154420926894
0.11316666666666667,-1.0063746960180726
0.11320000000000001,-1.0101652448108347
0.11323333333333334,-1.0062177272348067
0.11326666666666667,-0.9943112932896836
0.11330000000000001,-0.9744916085006269
0.11333333333333334,-0.947074645647752
0.11336666666666667,-0.9126281211138013
0.1134,-0.8719330051440922
0.11343333333333334,-0.8259284363354996
0.11346666666666667,-0.7756486545762799
0.1135,-0.72216840474591
0.11353333333333333,-0.6665615819878811
0.11356666666666668,-0.6098609320029715
0.1136,-0.5530145179542553
0.11363333333333334,-0.49685410849047384
0.11366666666666667,-0.44208792734541624
0.11370000000000001,-0.38931589868742333
0.11373333333333334,-0.3390582816557825
0.11376666666666667,-0.2917771029878318
0.11380000000000001,-0.24786917920514048
0.11383333333333334,-0.20763120031187865
0.11386666666666667,-0.17120937326525215
0.1139,-0.1385544587760705
0.11393333333333334,-0.10941018168748863
0.11396666666666667,-0.08333458605149467
0.114,-0.059737806663291294
0.11403333333333333,-0.03793461783480575
0.11406666666666668,-0.017195143771945462
0.11410000000000001,0.0032314899570011664
0.11413333333333334,0.024112751392162537
0.11416666666666667,0.04621389679565044
0.11420000000000001,0.070234868374968
0.11423333333333334,0.09670101904342483
0.11426666666666667,0.12584973061911575
0.11430000000000001,0.15759130009188074
0.11433333333333334,0.19159958129101867
0.11436666666666667,0.22749556802323267
0.1144,0.26502255758474014
0.11443333333333333,0.3041468790220285
0.11446666666666667,0.34507115221966256
0.1145,0.3881579953617281
0.11453333333333333,0.4338029106677603
0.11456666666666668,0.4823230036964486
0.11460000000000001,0.5338892533541573
0.11463333333333334,0.5885144582060271
0.11466666666666667,0.6460950212378851
0.11470000000000001,0.7064574697282693
0.11473333333333334,0.7693703484790567
0.11476666666666667,0.8345416676021052
0.11480000000000001,0.901622439284663
0.11483333333333334,0.9701964461939715
0.11486666666666667,1.0397481308556062
0.1149,1.1096246901803724
0.11493333333333333,1.1790034411241912
0.11496666666666668,1.2468782541062682
0.115,1.3120866402290265
0.11503333333333333,1.3733845502403446
0.11506666666666668,1.4295322845283909
0.11510000000000001,1.4793346365135038
0.11513333333333334,1.52163538898638
0.11516666666666667,1.555328487663822
0.11520000000000001,1.5794241580135295
0.11523333333333334,1.593147475444253
0.11526666666666667,1.5960136688896234
0.1153,1.5878263157430799
0.11533333333333334,1.56861228893564
0.11536666666666667,1.5385765256053987
0.1154,1.4981142527342348
0.11543333333333333,1.4478353866154345
0.11546666666666668,1.3885623588931426
0.1155,1.3213031827493238
0.11553333333333334,1.2472087531522937
0.11556666666666668,1.1675190203756973
0.11560000000000001,1.0835053187315429
0.11563333333333334,0.996433639019354
0.11566666666666667,0.9075547847075071
0.1157,0.8180742180409115
0.11573333333333334,0.7290837670618012
0.11576666666666667,0.6415206352924078
0.11580000000000001,0.5562056631598423
0.11583333333333334,0.4739167847118268
0.11586666666666667,0.39542507110245756
0.1159,0.3214811891483619
0.11593333333333333,0.25277087094390177
0.11596666666666668,0.1898340222164514
0.116,0.13295602836358508
0.11603333333333334,0.08209319977326082
0.11606666666666668,0.036890531118310456
0.11610000000000001,-0.0032118239112681945
0.11613333333333334,-0.03883728469165004
0.11616666666666667,-0.07056333287438273
0.1162,-0.09888154918244434
0.11623333333333334,-0.12421550715802294
0.11626666666666667,-0.14695142070311742
0.1163,-0.16744244642819467
0.11633333333333334,-0.18598142586942737
0.11636666666666667,-0.20275766267568385
0.1164,-0.21782248588911818
0.11643333333333333,-0.23109360686353858
0.11646666666666668,-0.24240231825428948
0.1165,-0.2515510144639297
0.11653333333333334,-0.2583467021006405
0.11656666666666668,-0.2626056242213911
0.11660000000000001,-0.264146599801221
0.11663333333333334,-0.26279527820134513
0.11666666666666667,-0.2584222018365149
0.1167,-0.25100887814149286
0.11673333333333334,-0.24069776877601926
0.11676666666666667,-0.227795427993879
0.1168,-0.21272588016318827
0.11683333333333334,-0.195937291063109
0.11686666666666667,-0.17778149300869273
0.1169,-0.15841010097689495
0.11693333333333333,-0.13773168399127036
0.11696666666666668,-0.11544643046177976
0.117,-0.09112980341977876
0.11703333333333334,-0.06429835231701306
0.11706666666666668,-0.034411545341907344
0.11710000000000001,-0.0008446129210950238
0.11713333333333334,0.03709688366434314
0.11716666666666667,0.08010597465774094
0.1172,0.12877935612628272
0.11723333333333334,0.1835150347613889
0.11726666666666667,0.24440957537613392
0.1173,0.3111771877461957
0.11733333333333335,0.38310501368451505
0.11736666666666667,0.45905182951178297
0.1174,0.5375112296520569
0.11743333333333333,0.6167431082062483
0.11746666666666666,0.6949203547878438
0.11750000000000001,0.7702166728301041
0.11753333333333334,0.8408249466317838
0.11756666666666668,0.9049740930414489
0.11760000000000001,0.9610062008818352
0.11763333333333334,1.0075008977759081
0.11766666666666667,1.0433846037546266
0.1177,1.0679807168425834
0.11773333333333334,1.080995996692676
0.11776666666666667,1.0824548293595921
0.1178,1.0726040123262484
0.11783333333333335,1.051823965656582
0.11786666666666668,1.0205765875323096
0.1179,0.9793884036847023
0.11793333333333333,0.9288379426015508
0.11796666666666666,0.8695345334360675
0.11800000000000001,0.8021144245856892
