time,voltage
0.1,-13.115732561474527
0.10003333333333334,-13.084402554322729
0.10006666666666668,-13.058757351297626
0.10010000000000001,-13.035775579864342
0.10013333333333334,-13.012236345244535
0.10016666666666667,-12.986197265601236
0.10020000000000001,-12.957741142803979
0.10023333333333334,-12.928303208050613
0.10026666666666667,-12.899814536107248
0.1003,-12.875337336532516
0.10033333333333334,-12.860647149580723
0.10036666666666667,-12.86478490308525
0.1004,-12.898786070187738
0.10043333333333333,-12.97367424034579
0.10046666666666668,-13.09886539020889
0.1005,-13.280902987373409
0.10053333333333334,-13.522171718826035
0.10056666666666667,-13.820045442387102
0.10060000000000001,-14.167019635160116
0.10063333333333334,-14.551368011164742
0.10066666666666667,-14.95751839586109
0.10070000000000001,-15.366132865895262
0.10073333333333334,-15.754520650267095
0.10076666666666667,-16.09762092565972
0.1008,-16.368884759344425
0.10083333333333334,-16.540706692955233
0.10086666666666667,-16.584967644453776
0.1009,-16.473786817500574
0.10093333333333333,-16.17999203991311
0.10096666666666668,-15.676968597542027
0.101,-14.937532359739011
0.10103333333333334,-13.931928410880206
0.10106666666666667,-12.625730927009554
0.10110000000000001,-10.978157468446268
0.10113333333333334,-8.941090694858348
0.10116666666666667,-6.459584021058345
0.10120000000000001,-3.474513809634692
0.10123333333333334,0.0730117542727744
0.10126666666666667,4.236682264077958
0.1013,9.060560786142226
0.10133333333333334,14.575481454640965
0.10136666666666667,20.795982045149827
0.1014,27.717784828474205
0.10143333333333333,35.31602140842036
0.10146666666666668,43.54421411451532
0.1015,52.33399182436528
0.10153333333333334,61.59553397078816
0.10156666666666667,71.21877728841764
0.10160000000000001,81.07577620594294
0.10163333333333334,91.02473613749423
0.10166666666666667,100.91523385942426
0.1017,110.59330799074158
0.10173333333333334,119.90570141528819
0.10176666666666667,128.70333734901095
0.1018,136.84446480041223
0.10183333333333335,144.19788510505924
0.10186666666666667,150.64602629110232
0.1019,156.0873524637807
0.10193333333333333,160.4381250415852
0.10196666666666668,163.6337176748225
0.10200000000000001,165.62940272626466
0.10203333333333334,166.4003160922068
0.10206666666666667,165.94056328783682
0.10210000000000001,164.26234448612445
0.10213333333333334,161.39599913683418
0.10216666666666667,157.39024614498044
0.1022,152.31106373786903
0.10223333333333334,146.23913955673424
0.10226666666666667,139.2674325304032
0.1023,131.49958680722472
0.10233333333333335,123.04822509429975
0.10236666666666668,114.03242919068565
0.1024,104.57491231656203
0.10243333333333333,94.79938500680532
0.10246666666666668,84.82777979083096
0.10250000000000001,74.77675772338226
0.10253333333333334,64.75393450613234
0.10256666666666667,54.855031726134506
0.10260000000000001,45.162569636418624
0.10263333333333334,35.745902129075475
0.10266666666666667,26.662168852897555
0.1027,17.957740594366513
0.10273333333333334,9.66959531985518
0.10276666666666667,1.8262484431555146
0.1028,-5.551460797831691
0.10283333333333333,-12.449484443809485
0.10286666666666668,-18.85994103672822
0.1029,-24.780755177159065
0.10293333333333334,-30.215187653911954
0.10296666666666668,-35.171461933891685
0.10300000000000001,-39.66292814292298
0.10303333333333334,-43.70860507743704
0.10306666666666667,-47.33344029140841
0.10310000000000001,-50.56757758633028
0.10313333333333334,-53.44439469126856
0.10316666666666667,-55.998039931134336
0.1032,-58.26171349464115
0.10323333333333334,-60.26724250444349
0.10326666666666667,-62.045112762138714
0.1033,-63.62382148586633
0.10333333333333333,-65.02864794066117
0.10336666666666668,-66.2807319136678
0.1034,-67.39708075734852
0.10343333333333334,-68.39179763464112
0.10346666666666668,-69.27814897138069
0.10350000000000001,-70.06949381419659
0.10353333333333334,-70.77726543862019
0.10356666666666667,-71.40753782175439
0.10360000000000001,-71.95907753657963
0.10363333333333334,-72.42342242369652
0.10366666666666667,-72.7859903996233
0.1037,-73.02769968245724
0.10373333333333334,-73.12753047264368
0.10376666666666667,-73.06639786809579
0.1038,-72.83117339762983
0.10383333333333333,-72.41707748305676
0.10386666666666668,-71.82773369833173
0.1039,-71.07310772424461
0.10393333333333334,-70.16636003839434
0.10396666666666668,-69.12162662663577
0.10400000000000001,-67.9539651305781
0.10403333333333334,-66.68015336395774
0.10406666666666667,-65.31832807080399
0.10410000000000001,-63.886224823617326
0.10413333333333334,-62.39919246910988
0.10416666666666667,-60.868721861793205
0.1042,-59.30129703362198
0.10423333333333334,-57.69825393634684
0.10426666666666667,-56.05744276744525
0.1043,-54.37529626613784
0.10433333333333333,-52.64802619965082
0.10436666666666668,-50.8728084195595
0.1044,-49.04933072477838
0.10443333333333334,-47.18048677430638
0.10446666666666667,-45.27198657994723
0.10450000000000001,-43.33193697372561
0.10453333333333334,-41.37058992931627
0.10456666666666667,-39.39954931254589
0.1046,-37.43000205139699
0.10463333333333334,-35.47045755761416
0.10466666666666667,-33.52539064585453
0.1047,-31.596438773377052
0.10473333333333334,-29.68613129503924
0.10476666666666667,-27.80162556040223
0.1048,-25.956581184886094
0.10483333333333333,-24.171036760146393
0.10486666666666668,-22.469302287033155
0.10490000000000001,-20.877101493899044
0.10493333333333334,-19.419278667258812
0.10496666666666667,-18.117422774180483
0.10500000000000001,-16.98742169785683
0.10503333333333334,-16.038134100666806
0.10506666666666667,-15.270915836096147
0.1051,-14.679536412112729
0.10513333333333334,-14.250949437267565
0.10516666666666667,-13.96613262255088
0.1052,-13.800293445773843
0.10523333333333335,-13.72365611200889
0.10526666666666668,-13.703457388692076
0.1053,-13.706666691127282
0.10533333333333333,-13.702936091559327
0.10536666666666668,-13.666940408819904
0.10540000000000001,-13.579639860298048
0.10543333333333334,-13.428789623150902
0.10546666666666667,-13.208927820829505
0.10550000000000001,-12.920756506218186
0.10553333333333334,-12.570172776537529
0.10556666666666667,-12.167497264304515
0.1056,-11.726681163867976
0.10563333333333334,-11.26385312774686
0.10566666666666667,-10.795500416463291
0.1057,-10.337045555893503
0.10573333333333335,-9.90176841745216
0.10576666666666668,-9.499775642717436
0.1058,-9.13762345934071
0.10583333333333333,-8.819339205734359
0.10586666666666668,-8.548494915748988
0.10590000000000001,-8.330264737322082
0.10593333333333334,-8.172521368624174
0.10596666666666667,-8.085505564066258
0.10600000000000001,-8.080600236689767
0.10603333333333334,-8.169387803661277
0.10606666666666667,-8.363261773801392
0.1061,-8.673025342934164
0.10613333333333334,-9.108373656866119
0.10616666666666667,-9.67720847306428
0.1062,-10.384154125476321
0.10623333333333333,-11.228221363628048
0.10626666666666668,-12.200779724925386
0.1063,-13.284684600904363
0.10633333333333334,-14.454103391761514
0.10636666666666666,-15.674608478352138
0.10640000000000001,-16.903745216540678
0.10643333333333334,-18.09184759698698
0.10646666666666667,-19.182539388001207
0.10650000000000001,-20.112934280545243
0.10653333333333334,-20.81395270755063
0.10656666666666667,-21.21103321390577
0.1066,-21.225200372907914
0.10663333333333334,-20.774451789157848
0.10666666666666667,-19.77588939021567
0.1067,-18.149010281830765
0.10673333333333333,-15.819772346871893
0.10676666666666668,-12.724373969178238
0.1068,-8.812072856192414
0.10683333333333334,-4.047614383389583
0.10686666666666667,1.5859765824948013
0.10690000000000001,8.084538150580832
0.10693333333333334,15.420367647589513
0.10696666666666667,23.54047124226104
0.10700000000000001,32.36588232110395
0.10703333333333334,41.79243088336082
0.10706666666666667,51.692990287716974
0.1071,61.92123558779705
0.10713333333333334,72.31695178036472
0.10716666666666667,82.71214873100467
0.1072,92.9365615496251
0.10723333333333333,102.82208696016352
0.10726666666666668,112.20687340387332
0.1073,120.93922503300773
0.10733333333333334,128.8804993565554
0.10736666666666667,135.90679110634252
0.10740000000000001,141.910733304348
0.10743333333333334,146.8043822903609
0.10746666666666667,150.5221123772986
0.10750000000000001,153.021955270106
0.10753333333333334,154.28515635510897
0.10756666666666667,154.31484000234622
0.1076,153.13451353131012
0.10763333333333334,150.7863808793302
0.10766666666666667,147.32936328122085
0.1077,142.83687410778342
0.10773333333333333,137.3943519048535
0.10776666666666668,131.0967349455397
0.1078,124.04606949449352
0.10783333333333334,116.34947731664745
0.10786666666666667,108.1176431258556
0.10790000000000001,99.46333305207544
0.10793333333333334,90.49935267898135
0.10796666666666667,81.33589704384032
0.10800000000000001,72.0773296636737
0.10803333333333334,62.81853973710984
0.10806666666666667,53.64172529280569
0.1081,44.61477284789146
0.10813333333333333,35.79158932261372
0.10816666666666667,27.213630537328225
0.1082,18.9118932565186
0.10823333333333333,10.909353794774363
0.10826666666666668,3.223550816007128
0.10830000000000001,-4.131663182500894
0.10833333333333334,-11.14556927200655
0.10836666666666667,-17.810423434676252
0.10840000000000001,-24.120996842473808
0.10843333333333334,-30.074290644513063
0.10846666666666667,-35.6701132597318
0.10850000000000001,-40.91221469256094
0.10853333333333334,-45.808903047784845
0.10856666666666667,-50.37243794683673
0.1086,-54.61765682649728
0.10863333333333333,-58.56059125617614
0.10866666666666668,-62.217267016240584
0.1087,-65.60260913852215
0.10873333333333333,-68.72944485508638
0.10876666666666668,-71.60786578438805
0.10880000000000001,-74.24491537402749
0.10883333333333334,-76.64407895332185
0.10886666666666667,-78.80467147867822
0.10890000000000001,-80.72220025441204
0.10893333333333334,-82.39074440535802
0.10896666666666667,-83.80682729124447
0.109,-84.97282051209457
0.10903333333333334,-85.8987037365995
0.10906666666666667,-86.60226974406959
0.1091,-87.10793124636488
0.10913333333333333,-87.44447184948483
0.10916666666666668,-87.64253265993536
0.1092,-87.73247906076637
0.10923333333333334,-87.7427470297631
0.10926666666666668,-87.69878465744725
0.10930000000000001,-87.62298890430864
0.10933333333333334,-87.53524406320544
0.10936666666666667,-87.45297943190758
0.10940000000000001,-87.38962709065962
0.10943333333333334,-87.35151377670516
0.10946666666666667,-87.33622706836145
0.1095,-87.33452848378383
0.10953333333333334,-87.33320390284374
0.10956666666666667,-87.31655032314191
0.1096,-87.26737074931165
0.10963333333333333,-87.1681415304765
0.10966666666666668,-87.00174779523945
0.1097,-86.75162885370173
0.10973333333333334,-86.4019646215084
0.10976666666666668,-85.93833704876096
0.10980000000000001,-85.34860804135671
0.10983333333333334,-84.62360271849207
0.10986666666666667,-83.75769837103097
0.10990000000000001,-82.74934354844338
0.10993333333333334,-81.60084546696102
0.10996666666666667,-80.31720987705599
0.11,-78.90497435665159
0.11003333333333334,-77.37189916353942
0.11006666666666667,-75.72716815426885
0.1101,-73.98122970838682
0.11013333333333333,-72.14528946561477
0.11016666666666668,-70.23117809541634
0.1102,-68.25153011204482
0.11023333333333334,-66.21925341758984
0.11026666666666668,-64.1460368440562
0.11030000000000001,-62.04126870809068
0.11033333333333334,-59.91270982250754
0.11036666666666667,-57.76836020311859
0.1104,-55.61789219733184
0.11043333333333334,-53.47295683110652
0.11046666666666667,-51.34671233383562
0.1105,-49.253057677568826
0.11053333333333334,-47.2057411098842
0.11056666666666667,-45.21734491305358
0.1106,-43.29834550188795
0.11063333333333333,-41.456229375156354
0.11066666666666668,-39.694404060369145
0.1107,-38.011455382902135
0.11073333333333334,-36.4016673989302
0.11076666666666668,-34.85636507308853
0.11080000000000001,-33.36489982793422
0.11083333333333334,-31.9154242795993
0.11086666666666667,-30.496217958903486
0.1109,-29.097293832584093
0.11093333333333334,-27.71186355854909
0.11096666666666667,-26.337702008409558
0.111,-24.97793676034326
0.11103333333333334,-23.640718668238044
0.11106666666666667,-22.338143343656096
0.1111,-21.084701849449445
0.11113333333333333,-19.89510265661497
0.11116666666666668,-18.782215716976243
0.11120000000000001,-17.756275989151906
0.11123333333333334,-16.825025049568723
0.11126666666666667,-15.993553712236412
0.11130000000000001,-15.263932407609143
0.11133333333333334,-14.63581929913816
0.11136666666666667,-14.107906156307227
0.1114,-13.678636358433842
0.11143333333333334,-13.345520607677642
0.11146666666666667,-13.104033807077933
0.1115,-12.947182604175655
0.11153333333333335,-12.865678340849676
0.11156666666666668,-12.847911477583391
0.1116,-12.879441984982194
0.11163333333333333,-12.942731249142643
0.11166666666666668,-13.017645825376245
0.11170000000000001,-13.081962572486063
0.11173333333333334,-13.11091372606731
0.11176666666666667,-13.076122625364526
0.11180000000000001,-12.945075630339538
0.11183333333333334,-12.681857403096068
0.11186666666666667,-12.24886115724879
0.1119,-11.608052363382185
0.11193333333333334,-10.720521788458484
0.11196666666666667,-9.544728660779771
0.112,-8.035054430510366
0.11203333333333335,-6.142140137718323
0.11206666666666668,-3.8153335125741705
0.1121,-1.006248048999959
0.11213333333333333,2.328020101592088
0.11216666666666666,6.222785708356281
0.11220000000000001,10.70436419200141
0.11223333333333334,15.788477699965602
0.11226666666666667,21.47829542956542
0.11230000000000001,27.762483253231355
0.11233333333333334,34.613338080863926
0.11236666666666667,41.985125310010964
0.1124,49.8135608252734
0.11243333333333334,58.01755389756757
0.11246666666666667,66.50299646791498
0.1125,75.16705501148797
0.11253333333333335,83.90182034397631
0.11256666666666668,92.59743762009857
0.1126,101.14529440244277
0.11263333333333334,109.4415301840951
0.11266666666666666,117.39046596331313
0.11270000000000001,124.90698760743341
0.11273333333333334,131.91758295774153
0.11276666666666667,138.3605715484635
0.11280000000000001,144.18545596344353
0.11283333333333334,149.3511778757758
0.11286666666666667,153.8245530648303
0.1129,157.58060679966755
0.11293333333333334,160.60439055447273
0.11296666666666667,162.89206879317092
0.113,164.4501362845818
0.11303333333333333,165.29318022086184
0.11306666666666668,165.4406380756066
0.1131,164.91317978305452
0.11313333333333334,163.72992761424229
0.11316666666666667,161.90741762577443
0.11320000000000001,159.46027524867085
0.11323333333333334,156.40269686344837
0.11326666666666667,152.7497680426525
0.11330000000000001,148.5187242715783
0.11333333333333334,143.7307221567463
0.11336666666666667,138.41267731620314
0.1134,132.59806002023993
0.11343333333333334,126.32625656083314
0.11346666666666667,119.64114400373931
0.1135,112.58989690478658
0.11353333333333333,105.22269236906362
0.11356666666666668,97.59298370000509
0.1136,89.75714503689427
0.11363333333333334,81.77263688210029
0.11366666666666667,73.69515618132131
0.11370000000000001,65.57627454601904
0.11373333333333334,57.462525453740795
0.11376666666666667,49.39541852107122
0.11380000000000001,41.41180020415474
0.11383333333333334,33.5453696897897
0.11386666666666667,25.829559483639034
0.1139,18.29953341613281
0.11393333333333334,10.991899856829363
0.11396666666666667,3.9430433502291597
0.114,-2.813437122628258
0.11403333333333333,-9.249385643663494
0.11406666666666668,-15.343429778577054
0.11410000000000001,-21.080971371953282
0.11413333333333334,-26.453321406250602
0.11416666666666667,-31.456965481017413
0.11420000000000001,-36.09398399169631
0.11423333333333334,-40.372283267403496
0.11426666666666667,-44.304337736181665
0.11430000000000001,-47.90593920154179
0.11433333333333334,-51.196466682080434
0.11436666666666667,-54.199696678140505
0.1144,-56.94323264456379
0.11443333333333333,-59.45630794222997
0.11446666666666667,-61.767397383948676
0.1145,-63.90297608359576
0.11453333333333333,-65.88737997609516
0.11456666666666668,-67.74287669874657
0.11460000000000001,-69.48934713671247
0.11463333333333334,-71.14323174072689
0.11466666666666667,-72.71636293111473
0.11470000000000001,-74.21587250429445
0.11473333333333334,-75.645180724852
0.11476666666666667,-77.0046479871772
0.11480000000000001,-78.29072545790913
0.11483333333333334,-79.49554325358837
0.11486666666666667,-80.60943321343669
0.1149,-81.62447532613693
0.11493333333333333,-82.5360937522034
0.11496666666666668,-83.34334376220009
0.115,-84.04906246143467
0.11503333333333333,-84.65932440069969
0.11506666666666668,-85.1821872219914
0.11510000000000001,-85.6261600572655
0.11513333333333334,-85.99853783283326
0.11516666666666667,-86.30389307258703
0.11520000000000001,-86.54291851168844
0.11523333333333334,-86.71198204496741
0.11526666666666667,-86.80384558085454
0.1153,-86.80920459355967
0.11533333333333334,-86.71803736627385
0.11536666666666667,-86.5203438863211
0.1154,-86.206840833799
0.11543333333333333,-85.77017956886564
0.11546666666666668,-85.20651217165046
0.1155,-84.51666070431784
0.11553333333333334,-83.70629287397664
0.11556666666666668,-82.7852004920224
0.11560000000000001,-81.76632210697801
0.11563333333333334,-80.66493015309459
0.11566666666666667,-79.49766394730973
0.1157,-78.28116181031986
0.11573333333333334,-77.0308543066614
0.11576666666666667,-75.76040387878072
0.11580000000000001,-74.48151009362427
0.11583333333333334,-73.20377053497789
0.11586666666666667,-71.93472708765749
0.1159,-70.68005585864326
0.11593333333333333,-69.44349333696479
0.11596666666666668,-68.22636646961968
0.116,-67.0268476489448
0.11603333333333334,-65.83891764145346
0.11606666666666668,-64.6514189842158
0.11610000000000001,-63.44800080875645
0.11613333333333334,-62.20804054785485
0.11616666666666667,-60.90788673029583
0.1162,-59.52223043602792
0.11623333333333334,-58.026268047593994
0.11626666666666667,-56.398940874333064
0.1163,-54.62617744780839
0.11633333333333334,-52.703035311309236
0.11636666666666667,-50.634575999600514
0.1164,-48.43517182843986
0.11643333333333333,-46.125958512963365
0.11646666666666668,-43.731460520235615
0.1165,-41.27710465124735
0.11653333333333334,-38.787952730858144
0.11656666666666668,-36.28742650133244
0.11660000000000001,-33.79552998282185
0.11663333333333334,-31.327597111588695
0.11666666666666667,-28.8942957129705
0.1167,-26.502384596392986
0.11673333333333334,-24.15561611976589
0.11676666666666667,-21.85586171068319
0.1168,-19.60441617700965
0.11683333333333334,-17.40294865357546
0.11686666666666667,-15.253940578095225
0.1169,-13.160971306740906
0.11693333333333333,-11.129067081319798
0.11696666666666668,-9.164911734222416
0.117,-7.276595670270607
0.11703333333333334,-5.472974997626717
0.11706666666666668,-3.7629364388970963
0.11710000000000001,-2.1545712143458835
0.11713333333333334,-0.6543350420430731
0.11716666666666667,0.7334600136079183
0.1172,2.0067730495548144
0.11723333333333334,3.165805142549078
0.11726666666666667,4.212916075237265
0.1173,5.152417617795091
0.11733333333333335,5.990076491438251
0.11736666666666667,6.732163347204642
0.1174,7.384207641327516
0.11743333333333333,7.950281266194306
0.11746666666666666,8.433357575916727
0.11750000000000001,8.835983863051707
0.11753333333333334,9.160355173092679
0.11756666666666668,9.408082798857311
0.11760000000000001,9.580614685116666
0.11763333333333334,9.68054723266415
0.11766666666666667,9.713028464985891
0.1177,9.686546417271424
0.11773333333333334,9.613134807450079
0.11776666666666667,9.508374658209842
0.1178,9.39156878893963
0.11783333333333335,9.285994492492886
0.11786666666666668,9.218401535306203
0.1179,9.217027623234335
0.11793333333333333,9.308496994945576
0.11796666666666666,9.514618855170527
0.11800000000000001,9.85000827164598
0.11803333333333334,10.321297001640238
0.11806666666666668,10.927756254102032
0.11810000000000001,11.661968680713839
0.11813333333333334,12.50978044002646
0.11816666666666667,13.450321095563384
0.1182,14.457130507242136
0.11823333333333334,15.50049490904727
0.11826666666666667,16.550422074311335
0.1183,17.579361521679044
