time,voltage
0.1,-3.864951788192864
0.10003333333333334,-3.7524613879096895
0.10006666666666668,-3.6155735762547745
0.10010000000000001,-3.455958635556247
0.10013333333333334,-3.2757681569217447
0.10016666666666667,-3.077644942767684
0.10020000000000001,-2.86469168016962
0.10023333333333334,-2.640390044383772
0.10026666666666667,-2.408496272057671
0.1003,-2.17293917937617
0.10033333333333334,-1.9377234854996848
0.10036666666666667,-1.7068203400442223
0.1004,-1.4840281418923695
0.10043333333333333,-1.2728069727332805
0.10046666666666668,-1.0761154985575807
0.1005,-0.8962920299123361
0.10053333333333334,-0.735001716797481
0.10056666666666667,-0.5932539658840231
0.10060000000000001,-0.4714958973655224
0.10063333333333334,-0.3697427796782725
0.10066666666666667,-0.28765588291350197
0.10070000000000001,-0.22453758275717278
0.10073333333333334,-0.17931675258829818
0.10076666666666667,-0.15059608276420125
0.1008,-0.13673836296213476
0.10083333333333334,-0.13591892009309717
0.10086666666666667,-0.14612501062900954
0.1009,-0.16515027431576706
0.10093333333333333,-0.19062649365249984
0.10096666666666668,-0.22008283646579377
0.101,-0.25100903943087194
0.10103333333333334,-0.2809372567915584
0.10106666666666667,-0.30755699720102664
0.10110000000000001,-0.32882215813069676
0.10113333333333334,-0.34301424359760646
0.10116666666666667,-0.34879443414088085
0.10120000000000001,-0.3452769172755383
0.10123333333333334,-0.332099195783562
0.10126666666666667,-0.3094552183571438
0.1013,-0.2780757166148116
0.10133333333333334,-0.23915168396645836
0.10136666666666667,-0.19420755471092965
0.1014,-0.14493505764638534
0.10143333333333333,-0.09300930998471059
0.10146666666666668,-0.03992534598878327
0.1015,0.01310912462284878
0.10153333333333334,0.06520931304148353
0.10156666666666667,0.11578652790012528
0.10160000000000001,0.16449671039178537
0.10163333333333334,0.21120935183443343
0.10166666666666667,0.2560018387099356
0.1017,0.2991463080491242
0.10173333333333334,0.34107244603537856
0.10176666666666667,0.3823176940210733
0.1018,0.4234577265683055
0.10183333333333335,0.46498753622368055
0.10186666666666667,0.5071748958848326
0.1019,0.5499746682338607
0.10193333333333333,0.5930596110460769
0.10196666666666668,0.6359359102545168
0.10200000000000001,0.6780764336279655
0.10203333333333334,0.7190345546381789
0.10206666666666667,0.7585338135486897
0.10210000000000001,0.7965073275974992
0.10213333333333334,0.8330501890832225
0.10216666666666667,0.8683123954112356
0.1022,0.9024082365286419
0.10223333333333334,0.9353836260618987
0.10226666666666667,0.9672364358348969
0.1023,0.9979737192397354
0.10233333333333335,1.0276839663390056
0.10236666666666668,1.0565867839355443
0.1024,1.08501652550067
0.10243333333333333,1.1133387592633956
0.10246666666666668,1.1418573940892403
0.10250000000000001,1.170759080842046
0.10253333333333334,1.2000913715637487
0.10256666666666667,1.229762434868574
0.10260000000000001,1.259566479886307
0.10263333333333334,1.2892408590811562
0.10266666666666667,1.3185500985662226
0.1027,1.3473762234564346
0.10273333333333334,1.3757770552968145
0.10276666666666667,1.4039745947592612
0.1028,1.4322769230091614
0.10283333333333333,1.4609938168651861
0.10286666666666668,1.490411436574567
0.1029,1.5208263354312614
0.10293333333333334,1.552572925040872
0.10296666666666668,1.5859972186239264
0.10300000000000001,1.621403918389093
0.10303333333333334,1.659016763104971
0.10306666666666667,1.698952606660856
0.10310000000000001,1.7412116078900173
0.10313333333333334,1.7856909102194953
0.10316666666666667,1.8322020495059586
0.1032,1.8804765111765167
0.10323333333333334,1.9301637910200784
0.10326666666666667,1.9808368648386327
0.1033,2.0320323197460324
0.10333333333333333,2.0833311950948135
0.10336666666666668,2.134441457482569
0.1034,2.1852377572768593
0.10343333333333334,2.235760138353687
0.10346666666666668,2.286202789064628
0.10350000000000001,2.3368959739994315
0.10353333333333334,2.3882583643320086
0.10356666666666667,2.4407179807160335
0.10360000000000001,2.494624159068782
0.10363333333333334,2.5501679329569633
0.10366666666666667,2.607314756023489
0.1037,2.6657648464117605
0.10373333333333334,2.724983103211836
0.10376666666666667,2.7843066055791716
0.1038,2.8430756958200316
0.10383333333333333,2.9007426708764656
0.10386666666666668,2.9569342132517753
0.1039,3.0114392322987356
0.10393333333333334,3.06413003535817
0.10396666666666668,3.11487739442832
0.10400000000000001,3.1635138911188134
0.10403333333333334,3.209851555669284
0.10406666666666667,3.2537082912732718
0.10410000000000001,3.294895394561215
0.10413333333333334,3.333187362146551
0.10416666666666667,3.368322370643123
0.1042,3.4000420756201195
0.10423333333333334,3.4281590949968903
0.10426666666666667,3.4526235147345066
0.1043,3.473546250975716
0.10433333333333333,3.4911542224486425
0.10436666666666668,3.5056801553103707
0.1044,3.5172332104902626
0.10443333333333334,3.5257227756816847
0.10446666666666667,3.5308780380433227
0.10450000000000001,3.532352833342804
0.10453333333333334,3.5298636693366987
0.10456666666666667,3.5232938442468593
0.1046,3.5127260095306427
0.10463333333333334,3.498418215514644
0.10466666666666667,3.480756766111475
0.1047,3.4602214304128043
0.10473333333333334,3.437397099893005
0.10476666666666667,3.4130030149377637
0.1048,3.3878523615096734
0.10483333333333333,3.362705674109993
0.10486666666666668,3.3380917089528475
0.10490000000000001,3.314202117525794
0.10493333333333334,3.2908877570396733
0.10496666666666667,3.267733507564652
0.10500000000000001,3.244175108686907
0.10503333333333334,3.219580851167011
0.10506666666666667,3.1932558888018967
0.1051,3.16442036054152
0.10513333333333334,3.1322161842989718
0.10516666666666667,3.0957391561596315
0.1052,3.0540802586052553
0.10523333333333335,3.006367226290843
0.10526666666666668,2.9517943441752856
0.1053,2.8896441333638783
0.10533333333333333,2.819299499807942
0.10536666666666668,2.7402264129087888
0.10540000000000001,2.6519396270477156
0.10543333333333334,2.5540003335440473
0.10546666666666667,2.4460764584325334
0.10550000000000001,2.328041446095898
0.10553333333333334,2.2000328496728634
0.10556666666666667,2.0624328080590786
0.1056,1.9158409866565915
0.10563333333333334,1.761085600623495
0.10566666666666667,1.5992242219329535
0.1057,1.4314973262358024
0.10573333333333335,1.2592373460181054
0.10576666666666668,1.0837530968777844
0.1058,0.9062242392740042
0.10583333333333333,0.727669217580925
0.10586666666666668,0.549035540671815
0.10590000000000001,0.37129092494065996
0.10593333333333334,0.19534329781843
0.10596666666666667,0.021881005452000814
0.10600000000000001,-0.1486737229413626
0.10603333333333334,-0.316123653176766
0.10606666666666667,-0.48046070456389584
0.1061,-0.6418091653110686
0.10613333333333334,-0.8003260100352428
0.10616666666666667,-0.956095851069195
0.1062,-1.1090622609745229
0.10623333333333333,-1.259035631927368
0.10626666666666668,-1.405766989609403
0.1063,-1.5490173181801117
0.10633333333333334,-1.6885769270950362
0.10636666666666666,-1.8242440137394729
0.10640000000000001,-1.955795020812849
0.10643333333333334,-2.0829712832308025
0.10646666666666667,-2.2054834892141266
0.10650000000000001,-2.3230248919585277
0.10653333333333334,-2.435294431936869
0.10656666666666667,-2.542042144154644
0.1066,-2.6431364247346933
0.10663333333333334,-2.7386233486437774
0.10666666666666667,-2.8287471794902794
0.1067,-2.913931621718683
0.10673333333333333,-2.9947300637338707
0.10676666666666668,-3.0717461404007707
0.1068,-3.1455376559545987
0.10683333333333334,-3.2165284918887487
0.10686666666666667,-3.2849519979734962
0.10690000000000001,-3.350839669074782
0.10693333333333334,-3.414053877546463
0.10696666666666667,-3.4743505014644573
0.10700000000000001,-3.531456965369682
0.10703333333333334,-3.585157260647266
0.10706666666666667,-3.6353568227645017
0.1071,-3.682088026798678
0.10713333333333334,-3.725457212232126
0.10716666666666667,-3.765578406638778
0.1072,-3.8025452497500076
0.10723333333333333,-3.8364598950353206
0.10726666666666668,-3.8674819204685
0.1073,-3.895846482291982
0.10733333333333334,-3.9218499744626927
0.10736666666666667,-3.945843265577239
0.10740000000000001,-3.9682486223588427
0.10743333333333334,-3.9895673984199207
0.10746666666666667,-4.010348754610453
0.10750000000000001,-4.031130578534491
0.10753333333333334,-4.052385924541816
0.10756666666666667,-4.074486549739776
0.1076,-4.097659815007258
0.10763333333333334,-4.12193823316324
0.10766666666666667,-4.147147787210996
0.1077,-4.172961114881467
0.10773333333333333,-4.198987088061088
0.10776666666666668,-4.224849306593193
0.1078,-4.250228034575688
0.10783333333333334,-4.274875895433066
0.10786666666666667,-4.298636657465372
0.10790000000000001,-4.321493209884182
0.10793333333333334,-4.343643339208928
0.10796666666666667,-4.365552692906759
0.10800000000000001,-4.3879241201789645
0.10803333333333334,-4.411588805966559
0.10806666666666667,-4.437383550968501
0.1081,-4.466057970977782
0.10813333333333333,-4.498203194953289
0.10816666666666667,-4.534177872838272
0.1082,-4.57403854653714
0.10823333333333333,-4.617516781517638
0.10826666666666668,-4.664066417001718
0.10830000000000001,-4.71293838136479
0.10833333333333334,-4.7632217897734375
0.10836666666666667,-4.813842550440219
0.10840000000000001,-4.863547824500594
0.10843333333333334,-4.910907205679624
0.10846666666666667,-4.954350039290225
0.10850000000000001,-4.992227907739816
0.10853333333333334,-5.022883786704596
0.10856666666666667,-5.044729988904931
0.1086,-5.056327541270503
0.10863333333333333,-5.056440902529868
0.10866666666666668,-5.04407106426984
0.1087,-5.018494954314405
0.10873333333333333,-4.979309680829434
0.10876666666666668,-4.92646211042223
0.10880000000000001,-4.8602616397243805
0.10883333333333334,-4.781385190632261
0.10886666666666667,-4.690875861055248
0.10890000000000001,-4.5901104449444805
0.10893333333333334,-4.480701798365397
0.10896666666666667,-4.364338901551117
0.109,-4.24262198379407
0.10903333333333334,-4.1169665945867395
0.10906666666666667,-3.988590513591944
0.1091,-3.858530053894921
0.10913333333333333,-3.727643426521902
0.10916666666666668,-3.596599615295738
0.1092,-3.4658641316424137
0.10923333333333334,-3.3356995514437457
0.10926666666666668,-3.2061853393076847
0.10930000000000001,-3.0772345595374104
0.10933333333333334,-2.948606054331324
0.10936666666666667,-2.819931652443033
0.10940000000000001,-2.6907510716979055
0.10943333333333334,-2.5605327661751653
0.10946666666666667,-2.428682081786824
0.1095,-2.2945725012062086
0.10953333333333334,-2.1576261338830283
0.10956666666666667,-2.0174119513050455
0.1096,-1.873713349527666
0.10963333333333333,-1.7265520844283175
0.10966666666666668,-1.5761798674490741
0.1097,-1.4230501891835532
0.10973333333333334,-1.2677850305875615
0.10976666666666668,-1.1111581475224688
0.10980000000000001,-0.9541036665574063
0.10983333333333334,-0.7977249888926862
0.10986666666666667,-0.6432673886330704
0.10990000000000001,-0.49205011119642483
0.10993333333333334,-0.34539044212485764
0.10996666666666667,-0.20453467932154307
0.11,-0.07057464825911902
0.11003333333333334,0.05564440869488797
0.11006666666666667,0.1735822401068417
0.1101,0.28301310491051596
0.11013333333333333,0.3840026856016711
0.11016666666666668,0.47686678385246956
0.1102,0.5621199295903907
0.11023333333333334,0.640419814106832
0.11026666666666668,0.7125153286380249
0.11030000000000001,0.7792139891143476
0.11033333333333334,0.8413788817740168
0.11036666666666667,0.8999357212050746
0.1104,0.9558600131393122
0.11043333333333334,1.0101424608497904
0.11046666666666667,1.0637475880738794
0.1105,1.1175713378602363
0.11053333333333334,1.1724044703093228
0.11056666666666667,1.2289137086101238
0.1106,1.2876337861426124
0.11063333333333333,1.3489459325882311
0.11066666666666668,1.413037324597861
0.1107,1.479859274044281
0.11073333333333334,1.5491001199579024
0.11076666666666668,1.6201898489843596
0.11080000000000001,1.6923449611654606
0.11083333333333334,1.7646400034183751
0.11086666666666667,1.8360950720301257
0.1109,1.9057674311140322
0.11093333333333334,1.9728312383029085
0.11096666666666667,2.0366388066808043
0.111,2.096738397100501
0.11103333333333334,2.1528364575203116
0.11106666666666667,2.2047559535860035
0.1111,2.252430917922425
0.11113333333333333,2.2959062914277135
0.11116666666666668,2.3353005188487783
0.11120000000000001,2.3707167745820454
0.11123333333333334,2.40213601132107
0.11126666666666667,2.4293863215901705
0.11130000000000001,2.452228191744732
0.11133333333333334,2.470469413156977
0.11136666666666667,2.4840260868440684
0.1114,2.492913193567343
0.11143333333333334,2.497182406464717
0.11146666666666667,2.496875244644326
0.1115,2.492046967193607
0.11153333333333335,2.4828182764451263
0.11156666666666668,2.4694021031686306
0.1116,2.45212232903681
0.11163333333333333,2.4314506378328513
0.11166666666666668,2.4080510758409885
0.11170000000000001,2.382788525639281
0.11173333333333334,2.356661834832167
0.11176666666666667,2.3306823164337747
0.11180000000000001,2.305761500884462
0.11183333333333334,2.2826418905979393
0.11186666666666667,2.2618439263505685
0.1119,2.2436002498913608
0.11193333333333334,2.227807753441226
0.11196666666666667,2.2140465677559584
0.112,2.201671003269022
0.11203333333333335,2.189941463554439
0.11206666666666668,2.178146282654892
0.1121,2.1656534429712417
0.11213333333333333,2.1518880908625317
0.11216666666666666,2.1363104500622563
0.11220000000000001,2.118458301563039
0.11223333333333334,2.098042596471845
0.11226666666666667,2.075035135111735
0.11230000000000001,2.0496922973373803
0.11233333333333334,2.022499875123344
0.11236666666666667,1.9940684639005366
0.1124,1.9650290626006626
0.11243333333333334,1.935953559574615
0.11246666666666667,1.9072829824587012
0.1125,1.879254589507576
0.11253333333333335,1.8518510985658752
0.11256666666666668,1.824789035951104
0.1126,1.7975525068701168
0.11263333333333334,1.769481338968591
0.11266666666666666,1.739902272679021
0.11270000000000001,1.708256189394879
0.11273333333333334,1.674170346154052
0.11276666666666667,1.637472957469318
0.11280000000000001,1.5981833939379704
0.11283333333333334,1.5564815069709368
0.11286666666666667,1.5126349437889435
0.1129,1.4668990014009986
0.11293333333333334,1.4194328928497981
0.11296666666666667,1.3702677836643515
0.113,1.319354978307937
0.11303333333333333,1.2666872997204361
0.11306666666666668,1.2124318040560995
0.1131,1.1570261912483464
0.11313333333333334,1.1012185650300992
0.11316666666666667,1.0460102154281645
0.11320000000000001,0.9924965295375966
0.11323333333333334,0.9416801109174411
0.11326666666666667,0.8943264410026401
0.11330000000000001,0.850869808011411
0.11333333333333334,0.811357020590672
0.11336666666666667,0.7754244544853235
0.1134,0.7423070032548101
0.11343333333333334,0.7109022691778816
0.11346666666666667,0.6799077038672262
0.1135,0.6480051863325504
0.11353333333333333,0.6140493621504499
0.11356666666666668,0.5771974071487096
0.1136,0.5369259099356184
0.11363333333333334,0.49295240506603133
0.11366666666666667,0.44513818849935927
0.11370000000000001,0.3934366300324314
0.11373333333333334,0.33789953235257675
0.11376666666666667,0.2787177561742424
0.11380000000000001,0.21625708129631396
0.11383333333333334,0.1510542695148415
0.11386666666666667,0.08376766797870742
0.1139,0.015110305804907484
0.11393333333333334,-0.0541971412598532
0.11396666666666667,-0.12343725732812484
0.114,-0.19188194194856312
0.11403333333333333,-0.25878601101195986
0.11406666666666668,-0.3234247588634113
0.11410000000000001,-0.38517291533548936
0.11413333333333334,-0.44357930924346844
0.11416666666666667,-0.49839562181860114
0.11420000000000001,-0.5495553854143594
0.11423333333333334,-0.5971433781122429
0.11426666666666667,-0.6413975435988304
0.11430000000000001,-0.682730013838317
0.11433333333333334,-0.7217212205611119
0.11436666666666667,-0.7590712635000703
0.1144,-0.7955231800655036
0.11443333333333333,-0.8317730868147583
0.11446666666666667,-0.8683864526935026
0.1145,-0.9057520892161305
0.11453333333333333,-0.9440863254957068
0.11456666666666668,-0.9834557694131855
0.11460000000000001,-1.023789002503307
0.11463333333333334,-1.0648892577933513
0.11466666666666667,-1.1064447948703868
0.11470000000000001,-1.1479905110156023
0.11473333333333334,-1.1888321654955405
0.11476666666666667,-1.2280342970938014
0.11480000000000001,-1.2645255909877746
0.11483333333333334,-1.2972590043333838
0.11486666666666667,-1.3253383635201128
0.1149,-1.348072265984127
0.11493333333333333,-1.3649461576003339
0.11496666666666668,-1.3755335892222647
0.115,-1.3794325615738445
0.11503333333333333,-1.376292679076208
0.11506666666666668,-1.365879424233029
0.11510000000000001,-1.3481139043495616
0.11513333333333334,-1.3231413650990151
0.11516666666666667,-1.2914614221208958
0.11520000000000001,-1.2539966299022405
0.11523333333333334,-1.211996281038706
0.11526666666666667,-1.1668544655889515
0.1153,-1.1199576611787856
0.11533333333333334,-1.0725875834741077
0.11536666666666667,-1.0258658324267607
0.1154,-0.9807138729098801
0.11543333333333333,-0.9378059724653907
0.11546666666666668,-0.8975581969318058
0.1155,-0.8601993530330206
0.11553333333333334,-0.8258508965131177
0.11556666666666668,-0.7945418849860393
0.11560000000000001,-0.7662474928576318
0.11563333333333334,-0.7410279332862145
0.11566666666666667,-0.7191084234951314
0.1157,-0.7007655219979245
0.11573333333333334,-0.6862013747366404
0.11576666666666667,-0.6755544837812678
0.11580000000000001,-0.6689267464232949
0.11583333333333334,-0.6663548166492773
0.11586666666666667,-0.6677850061966215
0.1159,-0.6730747907928709
0.11593333333333333,-0.6820084821661652
0.11596666666666668,-0.6943185912089076
0.116,-0.7097012761119217
0.11603333333333334,-0.7278133859491903
0.11606666666666668,-0.7482606553903993
0.11610000000000001,-0.7706074505299291
0.11613333333333334,-0.7944153984455357
0.11616666666666667,-0.8192805624978635
0.1162,-0.8448347058615172
0.11623333333333334,-0.870718088031045
0.11626666666666667,-0.8965637126579693
0.1163,-0.9219986355671326
0.11633333333333334,-0.9466407854927793
0.11636666666666667,-0.9700997912580813
0.1164,-0.9920016141888548
0.11643333333333333,-1.01203778129935
0.11646666666666668,-1.030024064941672
0.1165,-1.0459294539561834
0.11653333333333334,-1.0598500758561415
0.11656666666666668,-1.0719634433474698
0.11660000000000001,-1.0824996384742687
0.11663333333333334,-1.0917109165465628
0.11666666666666667,-1.0998191315354282
0.1167,-1.1069559029065132
0.11673333333333334,-1.1131189120561966
0.11676666666666667,-1.1181686124851231
0.1168,-1.1218870534171874
0.11683333333333334,-1.1240834589813515
0.11686666666666667,-1.124689180423441
0.1169,-1.123793084444674
0.11693333333333333,-1.1216127583287472
0.11696666666666668,-1.1184237054665587
0.117,-1.1144641478652682
0.11703333333333334,-1.109835499041918
0.11706666666666668,-1.1044486659426853
0.11710000000000001,-1.0980677699310795
0.11713333333333334,-1.0904332108983932
0.11716666666666667,-1.081380728903282
0.1172,-1.0708980109949457
0.11723333333333334,-1.0591181965746925
0.11726666666666667,-1.0462743217340864
0.1173,-1.0326557688811326
0.11733333333333335,-1.0185983070771765
0.11736666666666667,-1.0044941962596354
0.1174,-0.9907825649219868
0.11743333333333333,-0.9778795037029088
0.11746666666666666,-0.9660362196488332
0.11750000000000001,-0.9551810201952616
0.11753333333333334,-0.9448334198872597
0.11756666666666668,-0.9341282092078018
0.11760000000000001,-0.9219239089816661
0.11763333333333334,-0.9069493958550522
0.11766666666666667,-0.8879400969492032
0.1177,-0.863733071246302
0.11773333333333334,-0.833330275322669
0.11776666666666667,-0.7959624678937259
0.1178,-0.7511797703964591
0.11783333333333335,-0.6989455600079408
0.11786666666666668,-0.6396737261391028
0.1179,-0.5741941976248217
0.11793333333333333,-0.5036684879568333
0.11796666666666666,-0.42947425493724467
0.11800000000000001,-0.3530965819408899
0.11803333333333334,-0.2760591531536711
0.11806666666666668,-0.19988942712344332
0.11810000000000001,-0.12609886856689173
0.11813333333333334,-0.0561580088297053
