time,voltage
0.1,-91.17944802435584
0.10003333333333334,-88.52566623767808
0.10006666666666668,-85.29631948325306
0.10010000000000001,-81.53081171927872
0.10013333333333334,-77.27990156390571
0.10016666666666667,-72.60593590809826
0.10020000000000001,-67.58211088197741
0.10023333333333334,-62.29056340856305
0.10026666666666667,-56.81990764883818
0.1003,-51.26282912581415
0.10033333333333334,-45.71380400689599
0.10036666666666667,-40.266516514014626
0.1004,-35.01057547009043
0.10043333333333333,-30.02760838483171
0.10046666666666668,-25.38741376259036
0.1005,-21.145155169116432
0.10053333333333334,-17.340115495004063
0.10056666666666667,-13.996107849182927
0.10060000000000001,-11.123680319914016
0.10063333333333334,-8.723193088714531
0.10066666666666667,-6.786655087215244
0.10070000000000001,-5.297608493228269
0.10073333333333334,-4.230784112645602
0.10076666666666667,-3.5532176990529827
0.1008,-3.2262854592649015
0.10083333333333334,-3.2069411276022155
0.10086666666666667,-3.447701630202385
0.1009,-3.896516241403141
0.10093333333333333,-4.497515828554662
0.10096666666666668,-5.19241045648845
0.101,-5.921979963714509
0.10103333333333334,-6.628004873370568
0.10106666666666667,-7.255977893210185
0.10110000000000001,-7.757628987596025
0.10113333333333334,-8.092416760630913
0.10116666666666667,-8.228756850267501
0.10120000000000001,-8.145751882950412
0.10123333333333334,-7.834850131752608
0.10126666666666667,-7.300627108536547
0.1013,-6.560321690179602
0.10133333333333334,-5.642030891795256
0.10136666666666667,-4.581718007204201
0.1014,-3.4192930132847064
0.10143333333333333,-2.1942740014695143
0.10146666666666668,-0.9419306892227564
0.1015,0.30924553982992986
0.10153333333333334,1.5383813975946723
0.10156666666666667,2.731588893351158
0.10160000000000001,3.880751214659385
0.10163333333333334,4.98278945500009
0.10166666666666667,6.039529206484463
0.1017,7.057390462517654
0.10173333333333334,8.046509991708156
0.10176666666666667,9.019566637322871
0.1018,9.99014120978491
0.10183333333333335,10.969911131906624
0.10186666666666667,11.965193437890635
0.1019,12.974923228710248
0.10193333333333333,13.991380406998463
0.10196666666666668,15.00291524283431
0.10200000000000001,15.997091990374225
0.10203333333333334,16.963374131595824
0.10206666666666667,17.895239590686003
0.10210000000000001,18.79111046838446
0.10213333333333334,19.653230055050322
0.10216666666666667,20.4851369202748
0.1022,21.28952725232648
0.10223333333333334,22.067484160072663
0.10226666666666667,22.81895738916185
0.1023,23.544113291140555
0.10233333333333335,24.245039409409234
0.10236666666666668,24.92691649267492
0.1024,25.597632305158324
0.10243333333333333,26.265811007256875
0.10246666666666668,26.938622142085013
0.10250000000000001,27.620468996025483
0.10253333333333334,28.31247334729014
0.10256666666666667,29.01246875181058
0.10260000000000001,29.715600325086204
0.10263333333333334,30.415671867260702
0.10266666666666667,31.107128240588324
0.1027,31.78718625451041
0.10273333333333334,32.457209972992594
0.10276666666666667,33.12243664823028
0.1028,33.79013427883921
0.10283333333333333,34.46761086876562
0.10286666666666668,35.16161728109245
0.1029,35.87914956632108
0.10293333333333334,36.62809690138368
0.10296666666666668,37.41662216217682
0.10300000000000001,38.25191365024757
0.10303333333333334,39.1392496436962
0.10306666666666667,40.081386878814804
0.10310000000000001,41.07832911601229
0.10313333333333334,42.12764985933264
0.10316666666666667,43.22490302841201
0.1032,44.3637540581083
0.10323333333333334,45.53593415011428
0.10326666666666667,46.731369308589564
0.1033,47.93912708624419
0.10333333333333333,49.14932372009728
0.10336666666666668,50.35506981715623
0.1034,51.553408259114434
0.10343333333333334,52.74528376338737
0.10346666666666668,53.935277504607264
0.10350000000000001,55.131180862779054
0.10353333333333334,56.34287083798314
0.10356666666666667,57.58044499691425
0.10360000000000001,58.85214463842534
0.10363333333333334,60.16247651695628
0.10366666666666667,61.51062568254888
0.1037,62.88951995740736
0.10373333333333334,64.28653570114287
0.10376666666666667,65.68603384570494
0.1038,67.07245230479509
0.10383333333333333,68.43287013817184
0.10386666666666668,69.75848037304598
0.1039,71.04430316513967
0.10393333333333334,72.287326129762
0.10396666666666668,73.48450066102765
0.10400000000000001,74.63187719458124
0.10403333333333334,75.72502133339988
0.10406666666666667,76.75963722964653
0.10410000000000001,77.73127317756358
0.10413333333333334,78.63460931303705
0.10416666666666667,79.46346893769204
0.1042,80.21175742459124
0.10423333333333334,80.87505423357565
0.10426666666666667,81.45218186140173
0.1043,81.94575698298452
0.10433333333333333,82.3611329137626
0.10436666666666668,82.7037999717573
0.1044,82.97633341906288
0.10443333333333334,83.17659562211665
0.10446666666666667,83.29819779550698
0.10450000000000001,83.33297352086795
0.10453333333333334,83.27423488640031
0.10456666666666667,83.11922876845234
0.1046,82.869905026898
0.10463333333333334,82.53235139247643
0.10466666666666667,82.11568125217978
0.1047,81.63121294840171
0.10473333333333334,81.0927447865865
0.10476666666666667,80.51724452464877
0.1048,79.92389620917358
0.10483333333333333,79.33064177288445
0.10486666666666668,78.74995521483288
0.10490000000000001,78.18635782154549
0.10493333333333334,77.63633112611703
0.10496666666666667,77.0900819356019
0.10500000000000001,76.53429865005322
0.10503333333333334,75.954078468277
0.10506666666666667,75.33302911000254
0.1051,74.65275269008599
0.10513333333333334,73.89300599286788
0.10516666666666667,73.03245773170252
0.1052,72.049663060363
0.10523333333333335,70.92404416043232
0.10526666666666668,69.63659321559837
0.1053,68.17038400719869
0.10533333333333333,66.51085851695586
0.10536666666666668,64.64541829428363
0.10540000000000001,62.56261578557554
0.10543333333333334,60.252098941159836
0.10546666666666667,57.70603371338758
0.10550000000000001,54.92143448289032
0.10553333333333334,51.90154627774154
0.10556666666666667,48.655384202256094
0.1056,45.197095076440675
0.10563333333333334,41.546217487975156
0.10566666666666667,37.72770083181715
0.1057,33.77080942423889
0.10573333333333335,29.7069769561948
0.10576666666666668,25.567079968584622
0.1058,21.378948076528626
0.10583333333333333,17.16660761268826
0.10586666666666668,12.952411456204429
0.10590000000000001,8.7591892075793
0.10593333333333334,4.6083599742958175
0.10596666666666667,0.5161626754935202
0.10600000000000001,-3.50744179052192
0.10603333333333334,-7.457800430639455
0.10606666666666667,-11.334722611417842
0.1061,-15.141140441332794
0.10613333333333334,-18.88075713949239
0.10616666666666667,-22.555568809102645
0.1062,-26.16424425195931
0.10623333333333333,-29.702310380940744
0.10626666666666668,-33.163893579571315
0.1063,-36.543355162535185
0.10633333333333334,-39.83574826252986
0.10636666666666666,-43.03631209674222
0.10640000000000001,-46.139772661511024
0.10643333333333334,-49.140027716546996
0.10646666666666667,-52.030252027511224
0.10650000000000001,-54.80320904545188
0.10653333333333334,-57.451796390130596
0.10656666666666667,-59.970117062527336
0.1066,-62.35506634553485
0.10663333333333334,-64.60773118141854
0.10666666666666667,-66.73387402299792
0.1067,-68.74349055018426
0.10673333333333333,-70.64963584480951
0.10676666666666668,-72.46655036339352
0.1068,-74.20739336174495
0.10683333333333334,-75.88216469490763
0.10686666666666667,-77.49636934248825
0.10690000000000001,-79.05075028113545
0.10693333333333334,-80.5420606816261
0.10696666666666667,-81.96454138525446
0.10700000000000001,-83.31176198006548
0.10703333333333334,-84.57862653520445
0.10706666666666667,-85.76290413404442
0.1071,-86.86535852048763
0.10713333333333334,-87.88849834950456
0.10716666666666667,-88.83501364833108
0.1072,-89.70711347111191
0.10723333333333333,-90.50720772247415
0.10726666666666668,-91.23906102213984
0.1073,-91.90822097442295
0.10733333333333334,-92.52167985719421
0.10736666666666667,-93.08771507280345
0.10740000000000001,-93.61628839382227
0.10743333333333334,-94.11922735039302
0.10746666666666667,-94.60948730524483
0.10750000000000001,-95.09975767323883
0.10753333333333334,-95.60119837563596
0.10756666666666667,-96.12257961028449
0.1076,-96.66926509412369
0.10763333333333334,-97.24202184310646
0.10766666666666667,-97.83674458539254
0.1077,-98.44571044949014
0.10773333333333333,-99.05969225201723
0.10776666666666668,-99.66981026203192
0.1078,-100.2685215293404
0.10783333333333334,-100.84999015034066
0.10786666666666667,-101.41053044196937
0.10790000000000001,-101.94973875476282
0.10793333333333334,-102.47228113024875
0.10796666666666667,-102.98914277763637
0.10800000000000001,-103.51690478559266
0.10803333333333334,-104.07517584085049
0.10806666666666667,-104.68369711438366
0.1081,-105.36015298070237
0.10813333333333333,-106.11848891848723
0.10816666666666667,-106.96716594486512
0.1082,-107.90751798189393
0.10823333333333333,-108.93321236311468
0.10826666666666668,-110.0313645229581
0.10830000000000001,-111.18430298296751
0.10833333333333334,-112.37053889497768
0.10836666666666667,-113.56473316084366
0.10840000000000001,-114.73732982189244
0.10843333333333334,-115.85458388856384
0.10846666666666667,-116.87944174087386
0.10850000000000001,-117.7730152374433
0.10853333333333334,-118.49621319369396
0.10856666666666667,-119.01158017025276
0.1086,-119.2851690767647
0.10863333333333333,-119.2878320263016
0.10866666666666668,-118.99600122951259
0.1087,-118.39261856816515
0.10873333333333333,-117.46817936730221
0.10876666666666668,-116.22143017848862
0.10880000000000001,-114.65967007687385
0.10883333333333334,-112.79886850487662
0.10886666666666667,-110.6636334415769
0.10890000000000001,-108.28644516054739
0.10893333333333334,-105.70535292655163
0.10896666666666667,-102.96020186459488
0.109,-100.0887433553238
0.10903333333333334,-97.12437195637726
0.10906666666666667,-94.09581659256916
0.1091,-91.02752516937511
0.10913333333333333,-87.9397439459522
0.10916666666666668,-84.84825507937856
0.1092,-81.76404056314412
0.10923333333333334,-78.69329489211171
0.10926666666666668,-75.63789274114478
0.10930000000000001,-72.59578319717691
0.10933333333333334,-69.56127705774922
0.10936666666666667,-66.52568871640204
0.10940000000000001,-63.47815955551633
0.10943333333333334,-60.4061497567142
0.10946666666666667,-57.29563070089952
0.1095,-54.1318220741684
0.10953333333333334,-50.90109072526475
0.10956666666666667,-47.59326815501126
0.1096,-44.203244398661155
0.10963333333333333,-40.73153268772981
0.10966666666666668,-37.184071183384546
0.1097,-33.57155826062077
0.10973333333333334,-29.908667185267092
0.10976666666666668,-26.213651776090586
0.10980000000000001,-22.50854919031576
0.10983333333333334,-18.81938997810525
0.10986666666666667,-15.175551642566464
0.10990000000000001,-11.608156758658666
0.10993333333333334,-8.148281664126934
0.10996666666666667,-4.825328010657476
0.11,-1.6650532561398812
0.11003333333333334,1.3126023381449592
0.11006666666666667,4.094893619173836
0.1101,6.676495117070859
0.11013333333333333,9.0589563991258
0.11016666666666668,11.249727648916918
0.1102,13.260947291780425
0.11023333333333334,15.108131104054387
0.11026666666666668,16.80894637980142
0.11030000000000001,18.38244344084095
0.11033333333333334,19.84898357990675
0.11036666666666667,21.230405568297126
0.1104,22.549722810406315
0.11043333333333334,23.830307238382417
0.11046666666666667,25.094913176366795
0.1105,26.364677045535338
0.11053333333333334,27.6582538721004
0.11056666666666667,28.991372499228664
0.1106,30.376647968374428
0.11063333333333333,31.823073980309616
0.11066666666666668,33.335066286899284
0.1107,34.9114763009652
0.11073333333333334,36.54495158394296
0.11076666666666668,38.222044847999584
0.11080000000000001,39.92427239432719
0.11083333333333334,41.62980167490808
0.11086666666666667,43.31551558279834
0.1109,44.95917384297361
0.11093333333333334,46.54129383842222
0.11096666666666667,48.04659585363981
0.111,49.46442281701907
0.11103333333333334,50.787849480812234
0.11106666666666667,52.01269938881746
0.1111,53.1374162875254
0.11113333333333333,54.16306038205863
0.11116666666666668,55.09242592027807
0.11120000000000001,55.92794690138241
0.11123333333333334,56.669173963348186
0.11126666666666667,57.31205158425423
0.11130000000000001,57.850929327977504
0.11133333333333334,58.281272739004066
0.11136666666666667,58.60110251593418
0.1114,58.810772048721645
0.11143333333333334,58.91150034305814
0.11146666666666667,58.904266856714756
0.1115,58.79037518840136
0.11153333333333335,58.572672820851395
0.11156666666666668,58.25618301621952
0.1116,57.84854650195803
0.11163333333333333,57.36089083578536
0.11166666666666668,56.8088816396694
0.11170000000000001,56.21292250704702
0.11173333333333334,55.59657742836071
0.11176666666666667,54.98370446734268
0.11180000000000001,54.39580769459055
0.11183333333333334,53.85040360318849
0.11186666666666667,53.35976998142115
0.1119,52.92939508787149
0.11193333333333334,52.556846440888165
0.11196666666666667,52.23221877025516
0.112,51.94027942960045
0.11203333333333335,51.66358039570929
0.11206666666666668,51.38533255955285
0.1121,51.090625814403275
0.11213333333333333,50.765898621613424
0.11216666666666666,50.39841696136392
0.11220000000000001,49.977276484992665
0.11223333333333334,49.49565813877349
0.11226666666666667,48.952896620789865
0.11230000000000001,48.355040208093435
0.11233333333333334,47.71354929043272
0.11236666666666667,47.042828524662845
0.1124,46.35776391282564
0.11243333333333334,45.671846968283475
0.11246666666666667,44.99548204282702
0.1125,44.33426632256619
0.11253333333333335,43.68779207765884
0.11256666666666668,43.049371798358194
0.1126,42.40683488032096
0.11263333333333334,41.74460703830178
0.11266666666666666,41.04680524621679
0.11270000000000001,40.30023920469422
0.11273333333333334,39.49611544522818
0.11276666666666667,38.63038133334254
0.11280000000000001,37.703493841884146
0.11283333333333334,36.71969588405682
0.11286666666666667,35.685301585707734
0.1129,34.60633371876893
0.11293333333333334,33.48654832004419
0.11296666666666667,32.326680632192655
0.113,31.12558188065745
0.11303333333333333,29.88308276477713
0.11306666666666668,28.60312435994562
0.1131,27.296032560130108
0.11313333333333334,25.979456065076786
0.11316666666666667,24.677016549621467
0.11320000000000001,23.414555555109764
0.11323333333333334,22.21572574835839
0.11326666666666667,21.098585798554865
0.11330000000000001,20.073381125556615
0.11333333333333334,19.141216036148485
0.11336666666666667,18.293512226901736
0.1134,17.512219942338618
0.11343333333333334,16.771332316373787
0.11346666666666667,16.04012068620631
0.1135,15.287489013361128
0.11353333333333333,14.486417033814384
0.11356666666666668,13.617021541108992
0.1136,12.666954665614282
0.11363333333333334,11.62955274623861
0.11366666666666667,10.50154362862307
0.11370000000000001,9.281827292355192
0.11373333333333334,7.971625868612973
0.11376666666666667,6.575442036432194
0.11380000000000001,5.101905028545986
0.11383333333333334,3.56367775055071
0.11386666666666667,1.9762914537873915
0.1139,0.35656740291065603
0.11393333333333334,-1.2784927451400652
0.11396666666666667,-2.9119642386274744
0.114,-4.526670265230399
0.11403333333333333,-6.105030989752073
0.11406666666666668,-7.629949690187811
0.11410000000000001,-9.086675450361028
0.11413333333333334,-10.464564562765986
0.11416666666666667,-11.75775885715608
0.11420000000000001,-12.964690254548891
0.11423333333333334,-14.087358748802764
0.11426666666666667,-15.13137769892625
0.11430000000000001,-16.106469779577978
0.11433333333333334,-17.02632806397077
0.11436666666666667,-17.907468741413332
0.1144,-18.767420955580807
0.11443333333333333,-19.622606932429733
0.11446666666666667,-20.486366764063067
0.1145,-21.36787298109236
0.11453333333333333,-22.27222904668134
0.11456666666666668,-23.201006320230512
0.11460000000000001,-24.152519953959285
0.11463333333333334,-25.12212797853425
0.11466666666666667,-26.10247606350658
0.11470000000000001,-27.08259187720474
0.11473333333333334,-28.046097445480832
0.11476666666666667,-28.97092411152415
0.11480000000000001,-29.83179826868485
0.11483333333333334,-30.60401891786924
0.11486666666666667,-31.266444250816598
0.1149,-31.802763259404564
0.11493333333333333,-32.20083700725242
0.11496666666666668,-32.45060506337959
0.115,-32.54258380061899
0.11503333333333333,-32.46850698734174
0.11506666666666668,-32.222842098338496
0.11510000000000001,-31.803727988190857
0.11513333333333334,-31.214591209584064
0.11516666666666667,-30.46721833511768
0.11520000000000001,-29.58337358055546
0.11523333333333334,-28.59252931216262
0.11526666666666667,-27.52757384527218
0.1153,-26.42121590918247
0.11533333333333334,-25.303692771420046
0.11536666666666667,-24.201464375161052
0.1154,-23.136269233565905
0.11543333333333333,-22.12401417381623
0.11546666666666668,-21.17451473044056
0.1155,-20.29316876720252
0.11553333333333334,-19.482841607134336
0.11556666666666668,-18.74421878832748
0.11560000000000001,-18.076714677694387
0.11563333333333334,-17.481749808995023
0.11566666666666667,-16.96463736177381
0.1157,-16.531901718020602
0.11573333333333334,-16.18831177537882
0.11576666666666667,-15.937134993761607
0.11580000000000001,-15.780775280376538
0.11583333333333334,-15.720097371926038
0.11586666666666667,-15.75383471986759
0.1159,-15.87862502434589
0.11593333333333333,-16.089379955918137
0.11596666666666668,-16.37978913851915
0.116,-16.742684589688448
0.11603333333333334,-17.16997097508184
0.11606666666666668,-17.65234710732525
0.11610000000000001,-18.179535861948168
0.11613333333333334,-18.741195495669288
0.11616666666666667,-19.32779665694745
0.1162,-19.93065219420999
0.11623333333333334,-20.541275392316425
0.11626666666666667,-21.151008359870247
0.1163,-21.751052886937117
0.11633333333333334,-22.332395442368455
0.11636666666666667,-22.885826688011708
0.1164,-23.402522587381444
0.11643333333333333,-23.87520587649778
0.11646666666666668,-24.29953038830892
0.1165,-24.674764517466
0.11653333333333334,-25.00317601299315
0.11656666666666668,-25.2889525980794
0.11660000000000001,-25.537522169085925
0.11663333333333334,-25.754835715298398
0.11666666666666667,-25.946127020102843
0.1167,-26.114501123862205
0.11673333333333334,-26.259903303757383
0.11676666666666667,-26.379041462891664
0.1168,-26.466773851185344
0.11683333333333334,-26.51859980691446
0.11686666666666667,-26.532899795092685
0.1169,-26.511770261578658
0.11693333333333333,-26.460344327097452
0.11696666666666668,-26.38512142360536
0.117,-26.291721469721857
0.11703333333333334,-26.182536905262104
0.11706666666666668,-26.055465888269506
0.11710000000000001,-25.904943726468776
0.11713333333333334,-25.724846109553045
0.11716666666666667,-25.51129791830872
0.1172,-25.2640086485932
0.11723333333333334,-24.986119195018038
0.11726666666666667,-24.683127137537554
0.1173,-24.36185933521899
0.11733333333333335,-24.03023696576315
0.11736666666666667,-23.69751389651009
0.1174,-23.37404968228368
0.11743333333333333,-23.069660388145305
0.11746666666666666,-22.790272275857628
0.11750000000000001,-22.5341940137244
0.11753333333333334,-22.290090349634674
0.11756666666666668,-22.037549924078608
0.11760000000000001,-21.749643841604673
0.11763333333333334,-21.396384744411115
0.11766666666666667,-20.947939810048062
0.1177,-20.376873837081163
0.11773333333333334,-19.659641760771944
0.11776666666666667,-18.778096239098048
0.1178,-17.721624087138803
0.11783333333333335,-16.48936132767591
0.11786666666666668,-15.091072117226052
0.1179,-13.546335490477368
0.11793333333333333,-11.882552969507016
0.11796666666666666,-10.132225185454468
0.11800000000000001,-8.330387071122674
0.11803333333333334,-6.512984201026898
0.11806666666666668,-4.716051193014263
0.11810000000000001,-2.975245352465147
0.11813333333333334,-1.3252583181236743
0.11816666666666667,0.20158751524840035
0.1182,1.5775277136390358
0.11823333333333334,2.781111957272024
0.11826666666666667,3.797652073503908
0.1183,4.618816662321045
0.11833333333333335,5.242173860694171
0.11836666666666668,5.670793333762832
